11111
0
0
0
0
0
0
0
0
0
0
0
0
0
0
0
0
0
0
0
0
0
0
0
0
0
0
0
0
0
0
0
0
0
0
0
0
0
0
0
0
0
0
0
0
0
0
0
0
0
0
0
0
0
0
0
0
0
0
0
0
0
0
0
0
0
0
0
0
0
0
0
0
0
0
0
0
0
0
0
0
0
0
0
0
0
0
0
0
0
0
0
0
0
0
0
0
0
0
0
0
0
0
0
0
0
0
0
0
0
0
0
0
0
0
0
0
0
0
0
0
0
0
0
0
0
0
0
0
0
0
0
0
0
0
0
0
0
0
0
0
0
0
0
0
0
0
0
0
0
0
0
0
0
0
0
0
0
0
0
0
0
0
0
0
0
0
0
0
0
0
0
0
0
0
0
0
0
0
0
0
0
0
0
0
0
0
0
0
0
0
0
0
0
0
0
0
0
0
0
0
0
0
0
0
0
0
0
0
0
0
0
0
0
0
0
0
0
0
0
0
0
0
0
0
0
0
0
0
0
0
0
0
0
0
0
0
0
0
0
0
0
0
0
0
0
0
0
0
0
0
0
0
0
0
0
0
0
0
0
0
0
0
0
0
0
0
0
0
0
0
0
0
0
0
0
0
0
0
0
0
0
0
0
0
0
0
0
0
0
0
0
0
0
0
0
0
0
0
0
0
0
0
0
0
0
0
0
0
0
0
0
0
0
0
0
0
0
0
0
0
0
0
0
0
0
0
0
0
0
0
0
0
0
0
0
0
0
0
0
0
0
0
0
0
0
0
0
0
0
0
0
0
0
0
0
0
0
0
0
0
0
0
0
0
0
0
0
0
0
0
0
0
0
0
0
0
0
0
0
0
0
0
0
0
0
0
0
0
0
0
0
0
0
0
0
0
0
0
0
0
0
0
0
0
0
0
0
0
0
0
0
0
0
0
0
0
0
0
0
0
0
0
0
0
0
0
0
0
0
0
0
0
0
0
0
0
0
0
0
0
0
0
0
0
0
0
0
0
0
0
0
0
0
0
0
0
0
0
0
0
0
0
0
0
0
0
0
0
0
0
0
0
0
0
0
0
0
0
0
0
0
0
0
0
0
0
0
0
0
0
0
0
0
0
0
0
0
0
0
0
0
0
0
0
0
0
0
0
0
0
0
0
0
0
0
0
0
0
0
0
0
0
0
0
0
0
0
0
0
0
0
0
0
0
0
0
0
0
0
0
0
0
0
0
0
0
0
0
0
0
0
0
0
0
0
0
0
0
0
0
0
0
0
0
0
0
0
0
0
0
0
0
0
0
0
0
0
0
0
0
0
0
0
0
0
0
0
0
0
0
0
0
0
0
0
0
0
0
0
0
0
0
0
0
0
0
0
0
0
0
0
0
0
0
0
0
0
0
0
0
0
0
0
0
0
0
0
0
0
0
0
0
0
0
0
0
0
0
0
0
0
0
0
0
0
0
0
0
0
0
0
0
0
0
0
0
0
0
0
0
0
0
0
0
0
0
0
0
0
0
0
0
0
0
0
0
0
0
0
0
0
0
0
0
0
0
0
0
0
0
0
0
0
0
0
0
0
0
0
0
0
0
0
0
0
0
0
0
0
0
0
0
0
0
0
0
0
0
0
0
0
0
0
0
0
0
0
0
0
0
0
0
0
0
0
0
0
0
0
0
0
0
0
0
0
0
0
0
0
0
0
0
0
0
0
0
0
0
0
0
0
0
0
0
0
0
0
0
0
0
0
0
0
0
0
0
0
0
0
0
0
0
0
0
0
0
0
0
0
0
0
0
0
0
0
0
0
0
0
0
0
0
0
0
0
0
0
0
0
0
0
0
0
0
0
0
0
0
0
0
0
0
0
0
0
0
0
0
0
0
0
0
0
0
0
0
0
0
0
0
0
0
0
0
0
0
0
0
0
0
0
0
0
0
0
0
0
0
0
0
0
0
0
0
0
0
0
0
0
0
0
0
0
0
0
0
0
0
0
0
0
0
0
0
0
0
0
0
0
0
0
0
0
0
0
0
0
0
0
0
0
0
0
0
0
0
0
0
0
0
0
0
0
0
0
0
0
0
0
0
0
0
0
0
0
0
0
0
0
0
0
0
0
0
0
0
0
0
0
0
0
0
0
0
0
0
0
0
0
0
0
0
0
0
0
0
0
0
0
0
0
0
0
0
0
0
0
0
0
0
0
0
0
0
0
0
0
0
0
0
0
0
0
0
0
0
0
0
0
0
0
0
0
0
0
0
0
0
0
0
0
0
0
0
0
0
0
0
0
0
0
0
0
0
0
0
0
0
0
0
0
0
0
0
0
0
0
0
0
0
0
0
0
0
0
0
0
0
0
0
0
0
0
0
0
0
0
0
0
0
0
0
0
0
0
0
0
0
0
0
0
0
0
0
0
0
0
0
0
0
0
0
0
0
0
0
0
0
0
0
0
0
0
0
0
0
0
0
0
0
0
0
0
0
0
0
0
0
0
0
0
0
0
0
0
0
0
0
0
0
0
0
0
0
0
0
0
0
0
0
0
0
0
0
0
0
0
0
0
0
0
0
0
0
0
0
0
0
0
0
0
0
0
0
0
0
0
0
0
0
0
0
0
0
0
0
0
0
0
0
0
0
0
0
0
0
0
0
0
0
0
0
0
0
0
0
0
0
0
0
0
0
0
0
0
0
0
0
0
0
0
0
0
0
0
0
0
0
0
0
0
0
0
0
0
0
0
0
0
0
0
0
0
0
0
0
0
0
0
0
0
0
0
0
0
0
0
0
0
0
0
0
0
0
0
0
0
0
0
0
0
0
0
0
0
0
0
0
0
0
0
0
0
0
0
0
0
0
0
0
0
0
0
0
0
0
0
0
0
0
0
0
0
0
0
0
0
0
0
0
0
0
0
0
0
0
0
0
0
0
0
0
0
0
0
0
0
0
0
0
0
0
0
0
0
0
0
0
0
0
0
0
0
0
0
0
0
0
0
0
0
0
0
0
0
0
0
0
0
0
0
0
0
0
0
0
0
0
0
0
0
0
0
0
0
0
0
0
0
0
0
0
0
0
0
0
0
0
0
0
0
0
0
0
0
0
0
0
0
0
0
0
0
0
0
0
0
0
0
0
0
0
0
0
0
0
0
0
0
0
0
0
0
0
0
0
0
0
0
0
0
0
0
0
0
0
0
0
0
0
0
0
0
0
0
0
0
0
0
0
0
0
0
0
0
0
0
0
0
0
0
0
0
0
0
0
0
0
0
0
0
0
0
0
0
0
0
0
0
0
0
0
0
0
0
0
0
0
0
0
0
0
0
0
0
0
0
0
0
0
0
0
0
0
0
0
0
0
0
0
0
0
0
0
0
0
0
0
0
0
0
0
0
0
0
0
0
0
0
0
0
0
0
0
0
0
0
0
0
0
0
0
0
0
0
0
0
0
0
0
0
0
0
0
0
0
0
0
0
0
0
0
0
0
0
0
0
0
0
0
0
0
0
0
0
0
0
0
0
0
0
0
0
0
0
0
0
0
0
0
0
0
0
0
0
0
0
0
0
0
0
0
0
0
0
0
0
0
0
0
0
0
0
0
0
0
0
0
0
0
0
0
0
0
0
0
0
0
0
0
0
0
0
0
0
0
0
0
0
0
0
0
0
0
0
0
0
0
0
0
0
0
0
0
0
0
0
0
0
0
0
0
0
0
0
0
0
0
0
0
0
0
0
0
0
0
0
0
0
0
0
0
0
0
0
0
0
0
0
0
0
0
0
0
0
0
0
0
0
0
0
0
0
0
0
0
0
0
0
0
0
0
0
0
0
0
0
0
0
0
0
0
0
0
0
0
0
0
0
0
0
0
0
0
0
0
0
0
0
0
0
0
0
0
0
0
0
0
0
0
0
0
0
0
0
0
0
0
0
0
0
0
0
0
0
0
0
0
0
0
0
0
0
0
0
0
0
0
0
0
0
0
0
0
0
0
0
0
0
0
0
0
0
0
0
0
0
0
0
0
0
0
0
0
0
0
0
0
0
0
0
0
0
0
0
0
0
0
0
0
0
0
0
0
0
0
0
0
0
0
0
0
0
0
0
0
0
0
0
0
0
0
0
0
0
0
0
0
0
0
0
0
0
0
0
0
0
0
0
0
0
0
0
0
0
0
0
0
0
0
0
0
0
0
0
0
0
0
0
0
0
0
0
0
0
0
0
0
0
0
0
0
0
0
0
0
0
0
0
0
0
0
0
0
0
0
0
0
0
0
0
0
0
0
0
0
0
0
0
0
0
0
0
0
0
0
0
0
0
0
0
0
0
0
0
0
0
0
0
0
0
0
0
0
0
0
0
0
0
0
0
0
0
0
0
0
0
0
0
0
0
0
0
0
0
0
0
0
0
0
0
0
0
0
0
0
0
0
0
0
0
0
0
0
0
0
0
0
0
0
0
0
0
0
0
0
0
0
0
0
0
0
0
0
0
0
0
0
0
0
0
0
0
0
0
0
0
0
0
0
0
0
0
0
0
0
0
0
0
0
0
0
0
0
0
0
0
0
0
0
0
0
0
0
0
0
0
0
0
0
0
0
0
0
0
0
0
0
0
0
0
0
0
0
0
0
0
0
0
0
0
0
0
0
0
0
0
0
0
0
0
0
0
0
0
0
0
0
0
0
0
0
0
0
0
0
0
0
0
0
0
0
0
0
0
0
0
0
0
0
0
0
0
0
0
0
0
0
0
0
0
0
0
0
0
0
0
0
0
0
0
0
0
0
0
0
0
0
0
0
0
0
0
0
0
0
0
0
0
0
0
0
0
0
0
0
0
0
0
0
0
0
0
0
0
0
0
0
0
0
0
0
0
0
0
0
0
0
0
0
0
0
0
0
0
0
0
0
0
0
0
0
0
0
0
0
0
0
0
0
0
0
0
0
0
0
0
0
0
0
0
0
0
0
0
0
0
-1
0
-1
0
-1
0
-1
0
-1
1
-14
-19
-18
-23
-26
-29
-33
-39
-44
-48
-54
-59
-66
-70
-76
-82
-88
-94
-100
-106
-113
-118
-124
-128
-134
-141
-145
-151
-159
-163
-168
-175
-182
-187
-193
-198
-205
-210
-215
-222
-227
-233
-238
-242
-248
-255
-261
-266
-273
-278
-284
-287
-292
-299
-305
-311
-317
-321
-327
-332
-337
-343
-349
-353
-358
-364
-369
-373
-379
-386
-391
-395
-400
-405
-411
-416
-421
-426
-432
-436
-441
-447
-451
-459
-462
-468
-471
-477
-482
-488
-492
-498
-501
-506
-511
-517
-522
-526
-530
-536
-540
-546
-549
-555
-560
-564
-567
-574
-578
-584
-587
-592
-598
-603
-607
-612
-617
-620
-625
-630
-636
-641
-644
-648
-652
-657
-662
-665
-670
-676
-680
-685
-688
-694
-697
-701
-706
-709
-715
-718
-723
-727
-732
-736
-740
-743
-748
-752
-758
-762
-764
-768
-772
-777
-780
-786
-788
-794
-797
-803
-806
-809
-812
-817
-823
-825
-830
-835
-837
-842
-845
-850
-854
-857
-862
-866
-871
-873
-876
-880
-885
-889
-891
-895
-898
-902
-906
-911
-913
-918
-922
-926
-928
-934
-937
-941
-944
-947
-951
-955
-960
-963
-967
-970
-974
-976
-980
-983
-988
-990
-994
-998
-1001
-1004
-1007
-1012
-1016
-1019
-1019
-1024
-1027
-1032
-1035
-1039
-1043
-1046
-1048
-1052
-1056
-1059
-1062
-1064
-1070
-1072
-1075
-1080
-1080
-1085
-1088
-1091
-1096
-1098
-1102
-1105
-1109
-1113
-1115
-1118
-1121
-1124
-1127
-1130
-1133
-1137
-1140
-1141
-1145
-1148
-1150
-1155
-1157
-1160
-1162
-1166
-1168
-1172
-1174
-1177
-1181
-1183
-1186
-1189
-1192
-1195
-1199
-1201
-1205
-1208
-1210
-1212
-1215
-1219
-1222
-1224
-1227
-1229
-1234
-1236
-1238
-1241
-1242
-1245
-1249
-1252
-1254
-1256
-1260
-1262
-1267
-1268
-1270
-1272
-1275
-1278
-1279
-1284
-1287
-1288
-1290
-1293
-1296
-1298
-1302
-1302
-1306
-1309
-1310
-1314
-1313
-1318
-1320
-1322
-1326
-1328
-1330
-1333
-1336
-1338
-1339
-1343
-1344
-1346
-1348
-1352
-1353
-1357
-1358
-1361
-1363
-1364
-1366
-1369
-1371
-1375
-1377
-1378
-1381
-1384
-1387
-1389
-1391
-1393
-1395
-1397
-1399
-1403
-1404
-1408
-1407
-1410
-1411
-1415
-1417
-1419
-1421
-1424
-1426
-1428
-1429
-1431
-1434
-1434
-1436
-1440
-1442
-1444
-1446
-1449
-1450
-1452
-1453
-1455
-1458
-1460
-1461
-1463
-1466
-1467
-1469
-1472
-1473
-1474
-1478
-1480
-1479@
-1483
-1484
-1487
-1489
-1492
-1491
-1494
-1495
-1499
-1501
-1501
-1502
-1504
-1507
-1508
-1507
-1512
-1514
-1516
-1519
-1519
-1520
-1522
-1525
-1525
-1526
-1530
-1530
-1531
-1535
-1535
-1539
-1539
-1539
-1542
-1545
-1544
-1547
-1549
-1550
-1551
-1553
-1556
-1557
-1557
-1560
-1561
-1561
-1563
-1566
-1569
-1569
-1571
-1573
-1574
-1576
-1576
-1580
-1580
-1581
-1583
-1584
-1585
-1586
-1590
-1590
-1592
-1591
-1594
-1596
-1598
-1598
-1599
-1603
-1602
-1604
-1606
-1605
-1609
-1609
-1611
-1614
-1613
-1614
-1617
-1619
-1619
-1621
-1621
-1623
-1623
-1626
-1627
-1628
-1629
-1631@
-1633
-1632
-1634
-1639
-1637
-1639
-1640
-1641
-1643
-1644
-1645
-1646
-1647
-1648
-1651
-1651
-1651
-1653
-1655
-1655
-1655
-1658
-1661
-1661
-1663
-1664
-1665
-1664
-1667
-1666
-1668
-1668
-1671
-1673
-1672
-1673
-1676
-1676
-1677
-1677
-1679
-1679
-1680
-1682
-1683
-1685
-1685
-1686
-1687
-1688
-1688
-1691
-1691
-1691
-1694
-1694
-1696
-1696
-1697
-1696
-1698
-1700
-1699
-1700
-1702
-1704
-1704
-1704
-1707
-1707
-1708
-1710
-1708
-1711
-1712
-1713
-1712
-1712
-1715
-1715
-1715
-1717
-1719
-1720
-1720
-1721
-1722
-1723
-1724
-1724
-1724
-1727
-1726
-1728
-1728
-1730@
-1729
-1729
-1732
-1732
-1733
-1735
-1734
-1736
-1735
-1737
-1737
-1737
-1738
-1740
-1739
-1740
-1742
-1741
-1741
-1742
-1744
-1745
-1746
-1746
-1746
-1748
-1749
-1749
-1749
-1751
-1752
-1751
-1752
-1753
-1752
-1753
-1755
-1755
-1756
-1757
-1758
-1757
-1758
-1759
-1761
-1760
-1761
-1761
-1762
-1764
-1764
-1763
-1764
-1764
-1766
-1767
-1765
-1767
-1767
-1765
-1769
-1768
-1769
-1770
-1770
-1770
-1773
-1773
-1771
-1772
-1772
-1773
-1774
-1775
-1776
-1775
-1775
-1776
-1777
-1777
-1777
-1779
-1779
-1779
-1779
-1780
-1781
-1781
-1782
-1781
-1781
-1782
-1782
-1784
-1784
-1784@
-1785
-1784
-1785
-1787
-1786
-1787
-1786
-1786
-1789
-1788
-1788
-1787
-1788
-1789
-1790
-1790
-1791
-1791
-1791
-1789
-1791
-1792
-1792
-1792
-1791
-1792
-1794
-1793
-1794
-1794
-1794
-1792
-1794
-1797
-1795
-1794
-1796
-1797
-1798
-1796
-1796
-1796
-1796
-1798
-1798
-1798
-1799
-1800
-1801
-1800
-1801
-1801
-1801
-1801
-1799
-1801
-1802
-1802
-1802
-1802
-1800
-1802
-1803
-1802
-1802
-1803
-1802
-1802
-1804
-1804
-1804
-1803
-1803
-1804
-1802
-1804
-1804
-1804
-1804
-1806
-1805
-1805
-1806
-1805
-1806
-1805
-1806
-1806
-1805
-1808
-1805
-1807
-1806
-1807
-1807
-1806@
-1808
-1806
-1806
-1805
-1804
-1806
-1805
-1805
-1808
-1806
-1806
-1805
-1806
-1806
-1808
-1806
-1807
-1806
-1807
-1807
-1807
-1807
-1807
-1805
-1805
-1805
-1807
-1805
-1806
-1806
-1806
-1807
-1806
-1805
-1807
-1805
-1806
-1806
-1805
-1806
-1808
-1807
-1806
-1807
-1806
-1805
-1807
-1805
-1805
-1806
-1807
-1806
-1805
-1806
-1806
-1806
-1805
-1806
-1806
-1806
-1805
-1806
-1805
-1805
-1806
-1804
-1803
-1805
-1805
-1805
-1805
-1804
-1804
-1804
-1804
-1803
-1803
-1803
-1802
-1803
-1804
-1802
-1804
-1802
-1802
-1802
-1801
-1803
-1804
-1803
-1801
-1801
-1803
-1801
-1800
-1802@
-1800
-1802
-1801
-1798
-1800
-1799
-1798
-1799
-1797
-1799
-1799
-1798
-1799
-1800
-1799
-1797
-1796
-1796
-1797
-1797
-1797
-1796
-1795
-1797
-1795
-1795
-1794
-1794
-1794
-1793
-1795
-1794
-1793
-1795
-1792
-1794
-1791
-1792
-1793
-1792
-1792
-1792
-1791
-1791
-1792
-1790
-1792
-1790
-1788
-1791
-1789
-1789
-1788
-1787
-1787
-1788
-1787
-1787
-1788
-1787
-1786
-1787
-1786
-1787
-1785
-1783
-1783
-1784
-1784
-1784
-1782
-1784
-1782
-1781
-1783
-1781
-1781
-1781
-1781
-1781
-1780
-1779
-1779
-1779
-1779
-1778
-1778
-1778
-1777
-1777
-1776
-1776
-1776
-1775
-1775
-1773@
-1772
-1773
-1773
-1774
-1774
-1772
-1773
-1772
-1771
-1772
-1770
-1772
-1769
-1771
-1770
-1768
-1768
-1766
-1768
-1768
-1768
-1766
-1764
-1767
-1765
-1764
-1764
-1762
-1765
-1762
-1762
-1762
-1761
-1760
-1762
-1761
-1761
-1759
-1759
-1758
-1760
-1758
-1757
-1756
-1756
-1756
-1756
-1755
-1754
-1755
-1754
-1755
-1754
-1752
-1753
-1753
-1752
-1752
-1751
-1751
-1751
-1751
-1749
-1750
-1749
-1748
-1749
-1748
-1747
-1748
-1747
-1746
-1745
-1744
-1745
-1744
-1743
-1742
-1743
-1742
-1742
-1741
-1742
-1739
-1739
-1739
-1738
-1739
-1739
-1737
-1736
-1736
-1736
-1736
-1735
-1733@
-1734
-1733
-1732
-1734
-1734
-1733
-1731
-1732
-1729
-1731
-1729
-1728
-1729
-1726
-1728
-1728
-1727
-1725
-1725
-1725
-1724
-1725
-1724
-1723
-1721
-1722
-1720
-1720
-1720
-1718
-1719
-1718
-1717
-1717
-1716
-1715
-1715
-1715
-1715
-1714
-1713
-1714
-1713
-1711
-1712
-1710
-1710
-1710
-1709
-1708
-1706
-1707
-1707
-1704
-1705
-1705
-1704
-1704
-1702
-1702
-1701
-1702
-1699
-1699
-1700
-1698
-1698
-1698
-1699
-1694
-1694
-1694
-1695
-1692
-1693
-1692
-1690
-1692
-1691
-1689
-1690
-1689
-1689
-1689
-1686
-1687
-1686
-1685
-1685
-1684
-1684
-1682
-1682
-1681
-1681
-1681@
-1681
-1682
-1680
-1679
-1678
-1677
-1678
-1678
-1676
-1675
-1674
-1674
-1673
-1674
-1672
-1672
-1670
-1670
-1670
-1668
-1668
-1667
-1667
-1666
-1667
-1666
-1666
-1662
-1663
-1662
-1662
-1661
-1661
-1662
-1660
-1660
-1658
-1660
-1658
-1656
-1657
-1656
-1655
-1655
-1654
-1651
-1651
-1652
-1651
-1650
-1650
-1649
-1650
-1647
-1646
-1648
-1645
-1646
-1644
-1645
-1642
-1643
-1641
-1640
-1640
-1642
-1641
-1639
-1639
-1637
-1639
-1639
-1637
-1635
-1634
-1634
-1633
-1631
-1631
-1631
-1629
-1628
-1630
-1628
-1627
-1627
-1627
-1624
-1624
-1625
-1623
-1624
-1623
-1620
-1622
-1621@
-1619
-1619
-1618
-1618
-1615
-1616
-1616
-1612
-1613
-1614
-1612
-1613
-1611
-1612
-1609
-1609
-1606
-1607
-1606
-1607
-1604
-1604
-1604
-1601
-1604
-1601
-1601
-1601
-1598
-1599
-1599
-1598
-1597
-1597
-1598
-1593
-1594
-1594
-1592
-1592
-1590
-1590
-1588
-1589
-1587
-1590
-1588
-1585
-1586
-1584
-1583
-1585
-1584
-1582
-1581
-1581
-1580
-1579
-1578
-1576
-1576
-1576
-1575
-1575
-1574
-1574
-1572
-1572
-1572
-1569
-1571
-1569
-1569
-1569
-1569
-1567
-1565
-1565
-1564
-1566
-1563
-1562
-1561
-1560
-1558
-1559
-1558
-1558
-1557
-1556
-1554
-1555
-1553
-1553
-1551
-1552@
-1552
-1549
-1548
-1549
-1548
-1548
-1546
-1545
-1545
-1543
-1544
-1543
-1543
-1542
-1540
-1540
-1540
-1538
-1539
-1538
-1536
-1536
-1534
-1535
-1534
-1534
-1532
-1531
-1531
-1531
-1529
-1530
-1528
-1527
-1526
-1524
-1524
-1522
-1523
-1521
-1522
-1520
-1521
-1519
-1518
-1517
-1515
-1516
-1516
-1513
-1514
-1514
-1513
-1511
-1512
-1509
-1509
-1509
-1509
-1507
-1507
-1505
-1503
-1503
-1502
-1503
-1501
-1501
-1501
-1499
-1497
-1498
-1498
-1496
-1495
-1496
-1494
-1493
-1493
-1492
-1491
-1491
-1490
-1490
-1488
-1487
-1487
-1488
-1485
-1485
-1484
-1483
-1483
-1483
-1481
-1482@
-1479
-1478
-1479
-1476
-1477
-1474
-1474
-1474
-1473
-1472
-1471
-1471
-1469
-1469
-1470
-1468
-1466
-1466
-1465
-1462
-1464
-1462
-1464
-1463
-1462
-1460
-1461
-1458
-1458
-1456
-1456
-1455
-1455
-1455
-1454
-1451
-1451
-1450
-1450
-1449
-1448
-1447
-1445
-1446
-1446
-1443
-1443
-1443
-1441
-1441
-1439
-1439
-1437
-1435
-1437
-1434
-1435
-1432
-1432
-1431
-1433
-1432
-1431
-1430
-1429
-1429
-1428
-1426
-1425
-1424
-1424
-1424
-1425
-1422
-1421
-1421
-1422
-1420
-1420
-1417
-1416
-1416
-1414
-1414
-1413
-1413
-1413
-1411
-1412
-1411
-1410
-1409
-1406
-1409
-1406
-1405@
-1406
-1404
-1403
-1403
-1400
-1401
-1401
-1398
-1399
-1397
-1396
-1396
-1395
-1395
-1394
-1394
-1392
-1391
-1393
-1390
-1391
-1390
-1389
-1388
-1386
-1385
-1386
-1383
-1384
-1383
-1382
-1383
-1381
-1380
-1379
-1378
-1377
-1378
-1377
-1376
-1374
-1376
-1372
-1371
-1371
-1372
-1370
-1368
-1368
-1366
-1367
-1368
-1366
-1365
-1365
-1364
-1365
-1361
-1363
-1359
-1359
-1359
-1357
-1355
-1355
-1355
-1354
-1354
-1353
-1350
-1351
-1350
-1349
-1349
-1350
-1348
-1345
-1348
-1347
-1344
-1344
-1343
-1341
-1340
-1341
-1341
-1339
-1338
-1338
-1337
-1337
-1336
-1333
-1333
-1334
-1331@
-1330
-1332
-1329
-1331
-1328
-1327
-1326
-1325
-1325
-1324
-1323
-1324
-1322
-1321
-1318
-1317
-1318
-1316
-1319
-1315
-1316
-1315
-1313
-1314
-1312
-1311
-1311
-1310
-1309
-1309
-1308
-1308
-1307
-1305
-1306
-1305
-1303
-1305
-1301
-1299
-1300
-1300
-1298
-1297
-1297
-1297
-1294
-1293
-1292
-1292
-1292
-1290
-1292
-1290
-1290
-1288
-1287
-1286
-1284
-1285
-1285
-1283
-1282
-1283
-1282
-1280
-1280
-1280
-1278
-1279
-1275
-1275
-1276
-1275
-1274
-1272
-1272
-1270
-1270
-1270
-1267
-1268
-1267
-1265
-1265
-1264
-1263
-1263
-1262
-1261
-1260
-1259
-1258
-1260
-1255
-1255@
-1256
-1255
-1254
-1253
-1255
-1252
-1251
-1251
-1249
-1250
-1248
-1247
-1247
-1246
-1245
-1244
-1243
-1243
-1242
-1241
-1240
-1239
-1238
-1239
-1238
-1237
-1238
-1235
-1236
-1235
-1233
-1232
-1231
-1230
-1230
-1228
-1230
-1228
-1229
-1226
-1225
-1225
-1224
-1223
-1222
-1222
-1221
-1219
-1220
-1220
-1219
-1220
-1215
-1213
-1214
-1215
-1214
-1214
-1213
-1210
-1210
-1210
-1208
-1209
-1209
-1206
-1206
-1207
-1205
-1204
-1204
-1201
-1200
-1199
-1197
-1199
-1198
-1197
-1196
-1198
-1196
-1194
-1195
-1192
-1191
-1191
-1191
-1188
-1189
-1187
-1186
-1185
-1185
-1184
-1185
-1184@
-1181
-1182
-1181
-1181
-1181
-1179
-1179
-1177
-1178
-1175
-1174
-1173
-1173
-1173
-1172
-1172
-1171
-1170
-1170
-1169
-1168
-1165
-1167
-1165
-1166
-1165
-1163
-1162
-1163
-1160
-1160
-1160
-1159
-1160
-1158
-1155
-1156
-1156
-1155
-1155
-1153
-1151
-1152
-1151
-1149
-1151
-1148
-1147
-1147
-1147
-1146
-1144
-1143
-1144
-1141
-1141
-1142
-1139
-1140
-1138
-1138
-1138
-1134
-1137
-1135
-1135
-1134
-1130
-1132
-1130
-1131
-1130
-1127
-1130
-1126
-1126
-1127
-1126
-1124
-1124
-1123
-1122
-1122
-1121
-1120
-1121
-1120
-1118
-1118
-1116
-1117
-1116
-1114
-1114
-1113
-1110@
-1113
-1111
-1109
-1111
-1109
-1109
-1106
-1107
-1106
-1107
-1104
-1103
-1104
-1103
-1101
-1102
-1099
-1100
-1100
-1098
-1097
-1095
-1096
-1094
-1094
-1093
-1092
-1092
-1090
-1092
-1089
-1088
-1088
-1087
-1086
-1084
-1086
-1084
-1084
-1083
-1080
-1081
-1081
-1081
-1078
-1078
-1078
-1077
-1076
-1075
-1074
-1074
-1074
-1073
-1074
-1072
-1070
-1070
-1068
-1070
-1067
-1066
-1065
-1065
-1065
-1063
-1064
-1063
-1061
-1060
-1060
-1060
-1060
-1059
-1058
-1055
-1057
-1056
-1056
-1055
-1050
-1053
-1053
-1050
-1051
-1048
-1049
-1048
-1047
-1047
-1045
-1047
-1046
-1045
-1042
-1043@
-1042
-1041
-1040
-1039
-1040
-1037
-1038
-1038
-1034
-1036
-1035
-1034
-1034
-1033
-1032
-1030
-1031
-1030
-1029
-1027
-1028
-1029
-1027
-1025
-1026
-1025
-1024
-1022
-1022
-1020
-1020
-1020
-1019
-1020
-1018
-1018
-1018
-1015
-1017
-1015
-1013
-1013
-1013
-1013
-1010
-1011
-1009
-1009
-1009
-1007
-1007
-1007
-1004
-1005
-1003
-1004
-1002
-1002
-999
-1001
-999
-999
-998
-997
-997
-995
-995
-994
-994
-994
-991
-992
-992
-990
-989
-990
-988
-988
-988
-986
-987
-986
-986
-983
-984
-983
-983
-981
-981
-980
-979
-978
-978
-978
-979
-976
-976
-975
-974
-974
-973
-973
-971
-970
-970
-969
-969
-970
-966
-968
-967
-967
-964
-963
-963
-964
-962
-961
-961
-960
-959
-960
-959
-958
-957
-957
-956
-955
-955
-955
-954
-954
-952
-951
-951
-949
-949
-949
-947
-945
-947
-946
-946
-947
-943
-944
-943
-941
-942
-939
-941
-941
-937
-938
-937
-938
-937
-935
-935
-934
-934
-933
-931
-931
-931
-930
-929
-930
-927
-927
-927
-927
-926
-925
-923
-924
-922
-922
-922
-921
-921
-919
-919
-918
-916
-917
-916
-916
-914
-915
-912
-912
-914
-913
-914
-911
-910
-910
-909
-909
-908
-906
-904
-906
-906
-905
-903
-904
-902
-902
-903
-898
-899
-899
-898
-897
-898
-897
-895
-896
-894
-895
-894
-893
-891
-892
-891
-890
-888
-888
-890
-889
-886
-886
-885
-885
-885
-883
-884
-882
-881
-882
-881
-880
-881
-880
-879
-879
-877
-878
-876
-876
-875
-875
-875
-872
-871
-871
-870
-871
-870
-868
-867
-867
-867
-866
-867
-866
-864
-864
-864
-862
-861
-861
-862
-861
-860
-858
-858
-858
-857
-856
-857
-855
-854
-854
-854
-852
-851
-851
-850
-850
-849
-848
-849
-847
-847
-847
-844
-844
-844
-845
-842
-844
-843
-842
-841
-841
-840
-839
-838
-837
-837
-837
-837
-835
-835
-834
-833
-831
-834
-833
-830
-830
-830
-829
-829
-830
-829
-829
-828
-827
-827
-826
-825
-825
-823
-823
-822
-821
-821
-819
-820
-820
-821
-818
-819
-816
-817
-815
-814
-814
-814
-812
-813
-811
-811
-810
-810
-808
-809
-809
-809
-807
-806
-805
-805
-805
-805
-804
-806
-802
-802
-804
-801
-801
-800
-800
-798
-799
-798
-797
-798
-795
-795
-794
-793
-794
-792
-792
-792
-791
-792
-790
-788
-789
-787
-789
-786
-786
-785
-784
-785
-786
-784
-784
-783
-782
-782
-780
-779
-780
-779
-778
-777
-779
-776
-776
-776
-775
-775
-775
-773
-773
-774
-771
-771
-769
-771
-770
-768
-767
-768
-766
-767
-765
-766
-766
-764
-763
-764
-763
-760
-761
-760
-759
-760
-759
-758
-759
-756
-756
-756
-756
-755
-755
-754
-756
-753
-752
-752
-752
-750
-751
-749
-750
-748
-749
-749
-745
-747
-746
-746
-744
-744
-744
-743
-744
-743
-741
-743
-740
-739
-739
-740
-738
-738
-736
-737
-735
-736
-734
-734
-732
-733
-733
-731
-733
-731
-731
-730
-728
-728
-728
-728
-727
-726
-726
-726
-725
-724
-725
-722
-722
-722
-722
-723
-722
-722
-719
-721
-720
-718
-718
-716
-717
-715
-717
-715
-714
-715
-714
-712
-713
-713
-712
-710
-711
-710
-710
-708
-707
-708
-706
-707
-707
-706
-704
-704
-703
-702
-703
-703
-703
-703
-703
-701
-700
-699
-699
-698
-697
-698
-698
-697
-696
-696
-694
-694
-694
-693
-693
-692
-691
-692
-690
-691
-691
-690
-689
-690
-686
-688
-687
-686
-685
-685
-684
-685
-684
-685
-683
-681
-682
-681
-681
-679
-682
-682
-677
-678
-679
-678
-676
-678
-677
-675
-676
-674
-675
-673
-675
-673
-672
-673
-673
-670
-670
-672
-670
-669
-670
-668
-668
-669
-666
-666
-665
-664
-665
-663
-661
-663
-663
-660
-661
-660
-658
-660
-660
-657
-657
-659
-658
-655
-655
-655
-655
-655
-654
-653
-651
-652
-652
-652
-652
-652
-653
-651
-648
-649
-649
-647
-647
-648
-647
-645
-645
-646
-643
-644
-644
-643
-641
-640
-640
-640
-638
-641
-642
-639
-640
-640
-638
-637
-637
-637
-636
-635
-636
-634
-635
-634
-634
-632
-632
-632
-630
-631
-630
-628
-629
-628
-627
-628
-627
-627
-627
-626
-626
-625
-624
-623
-625
-623
-622
-622
-622
-622
-621
-621
-617
-619
-620
-620
-618
-617
-616
-615
-617
-616
-615
-616
-614
-616
-614
-613
-614
-612
-612
-611
-612
-612
-611
-609
-609
-608
-606
-607
-607
-607
-607
-605
-605
-605
-604
-604
-605
-604
-601
-601
-602
-601
-601
-599
-600
-600
-599
-599
-598
-598
-596
-597
-597
-595
-594
-595
-595
-594
-593
-592
-591
-592
-591
-589
-590
-589
-590
-587
-588
-587
-587
-587
-587
-585
-585
-585
-584
-584
-584
-584
-582
-583
-583
-581
-581
-582
-581
-579
-579
-579
-578
-578
-576
-576
-576
-577
-576
-576
-575
-573
-573
-573
-573
-572
-571
-572
-572
-572
-571
-571
-569
-569
-568
-567
-567
-568
-565
-566
-566
-567
-566
-564
-565
-566
-563
-561
-562
-562
-560
-562
-561
-560
-561
-559
-558
-557
-557
-556
-558
-557
-555
-555
-556
-554
-554
-553
-554
-554
-553
-553
-552
-551
-550
-549
-549
-549
-548
-548
-549
-547
-547
-547
-546
-545
-545
-545
-545
-545
-544
-543
-544
-542
-542
-542
-540
-541
-541
-541
-538
-539
-539
-538
-536
-537
-536
-537
-535
-534
-534
-535
-534
-533
-534
-532
-533
-532
-530
-532
-530
-531
-529
-528
-528
-528
-530
-528
-528
-526
-526
-525
-526
-525
-525
-524
-524
-524
-522
-524
-523
-522
-522
-522
-521
-520
-519
-519
-518
-518
-518
-515
-516
-517
-516
-514
-516
-515
-514
-514
-513
-513
-513
-513
-511
-511
-511
-512
-510
-508
-510
-509
-510
-509
-509
-508
-508
-506
-505
-507
-505
-504
-502
-504
-505
-504
-504
-504
-504
-503
-502
-502
-500
-501
-500
-500
-500
-499
-498
-499
-498
-499
-497
-496
-497
-495
-495
-496
-495
-494
-495
-493
-493
-491
-493
-491
-490
-492
-492
-491
-489
-490
-489
-490
-489
-489
-489
-487
-487
-488
-487
-486
-486
-486
-485
-484
-484
-484
-482
-484
-483
-483
-483
-483
-481
-480
-480
-479
-481
-481
-478
-478
-477
-478
-478
-476
-477
-476
-476
-475
-476
-476
-473
-474
-475
-473
-475
-473
-471
-474
-472
-472
-471
-471
-470
-470
-470
-467
-469
-469
-468
-467
-467
-467
-468
-467
-464
-467
-466
-464
-463
-464
-464
-463
-463
-462
-462
-462
-460
-462
-460
-459
-461
-460
-459
-459
-459
-458
-459
-457
-455
-455
-454
-456
-455
-455
-454
-453
-456
-453
-451
-452
-453
-451
-452
-451
-452
-451
-449
-449
-448
-449
-450
-449
-449
-448
-448
-448
-447
-446
-445
-447
-446
-446
-445
-443
-445
-444
-446
-443
-441
-442
-442
-441
-441
-440
-439
-440
-441
-439
-439
-439
-438
-437
-438
-437
-437
-437
-437
-435
-437
-436
-435
-434
-436
-433
-434
-433
-434
-433
-433
-433
-431
-431
-430
-429
-429
-429
-431
-429
-429
-429
-428
-428
-429
-427
-426
-427
-427
-427
-426
-426
-424
-423
-424
-424
-423
-423
-425
-423
-421
-421
-421
-421
-422
-421
-421
-422
-419
-420
-421
-418
-419
-418
-418
-418
-416
-417
-417
-417
-416
-414
-415
-415
-415
-415
-412
-413
-414
-413
-414
-413
-412
-412
-412
-411
-412
-409
-411
-409
-409
-409
-408
-409
-408
-408
-408
-408
-407
-406
-406
-405
-405
-403
-405
-403
-404
-403
-404
-403
-403
-403
-402
-403
-402
-403
-401
-400
-399
-400
-400
-400
-399
-398
-398
-398
-397
-397
-396
-395
-397
-395
-394
-396
-394
-394
-393
-394
-394
-393
-393
-393
-394
-391
-391
-391
-391
-391
-390
-391
-390
-390
-390
-390
-388
-388
-389
-387
-388
-388
-386
-386
-386
-386
-386
-386
-385
-383
-384
-385
-384
-382
-384
-383
-382
-383
-383
-382
-380
-381
-380
-381
-380
-378
-378
-379
-378
-378
-377
-376
-377
-378
-376
-376
-377
-376
-375
-375
-376
-374
-375
-375
-373
-375
-373
-373
-372
-372
-372
-372
-371
-371
-370
-370
-371
-370
-368
-369
-370
-369
-370
-367
-367
-367
-367
-367
-368
-367
-365
-364
-366
-366
-366
-363
-364
-364
-365
-365
-364
-364
-363
-362
-361
-362
-362
-361
-362
-361
-360
-361
-359
-360
-357
-358
-359
-359
-361
-357
-357
-356
-356
-358
-357
-356
-357
-355
-354
-356
-354
-355
-353
-354
-353
-352
-352
-353
-353
-351
-352
-352
-352
-351
-350
-350
-352
-350
-350
-349
-347
-348
-348
-348
-349
-349
-347
-347
-348
-347
-346
-346
-344
-345
-346
-344
-345
-343
-345
-342
-343
-343
-343
-343
-342
-342
-342
-343
-341
-341
-339
-338
-338
-340
-340
-340
-338
-339
-338
-337
-338
-338
-336
-335
-338
-338
-336
-337
-336
-333
-334
-336
-334
-334
-334
-334
-333
-334
-334
-333
-333
-330
-331
-332
-333
-332
-331
-332
-331
-330
-330
-328
-328
-327
-328
-328
-329
-327
-327
-326
-328
-327
-325
-327
-327
-325
-325
-324
-325
-323
-324
-324
-323
-322
-323
-324
-322
-323
-322
-321
-320
-321
-320
-321
-320
-321
-321
-320
-320
-319
-322
-319
-317
-318
-317
-318
-318
-317
-317
-317
-317
-316
-315
-317
-315
-315
-314
-315
-315
-314
-316
-315
-313
-313
-313
-312
-313
-312
-312
-311
-309
-310
-313
-311
-311
-310
-310
-309
-310
-307
-308
-307
-308
-307
-306
-308
-305
-306
-307
-308
-305
-306
-305
-307
-305
-304
-306
-305
-303
-305
-303
-304
-305
-301
-303
-303
-303
-302
-302
-303
-302
-300
-302
-301
-300
-300
-302
-300
-299
-299
-299
-300
-297
-299
-298
-299
-298
-298
-298
-298
-295
-296
-296
-295
-295
-296
-295
-294
-295
-293
-294
-294
-294
-292
-293
-293
-292
-292
-293
-292
-291
-291
-289
-289
-288
-289
-289
-289
-289
-289
-288
-287
-289
-286
-288
-287
-287
-286
-286
-287
-286
-285
-285
-284
-284
-285
-283
-285
-284
-285
-284
-284
-283
-284
-283
-281
-282
-281
-281
-281
-281
-280
-281
-281
-279
-279
-278
-279
-280
-278
-278
-277
-278
-279
-278
-277
-276
-276
-275
-277
-276
-276
-276
-274
-275
-275
-274
-275
-274
-275
-274
-273
-273
-273
-273
-273
-272
-270
-272
-272
-272
-272
-271
-270
-270
-271
-270
-269
-268
-268
-270
-268
-268
-268
-268
-269
-268
-266
-268
-268
-267
-266
-267
-266
-266
-265
-264
-266
-265
-266
-264
-264
-264
-266
-264
-263
-264
-262
-261
-263
-263
-263
-261
-262
-260
-261
-261
-261
-260
-259
-260
-259
-259
-259
-259
-259
-258
-259
-257
-258
-257
-258
-256
-257
-257
-256
-258
-257
-256
-256
-256
-255
-256
-256
-255
-255
-255
-254
-254
-255
-255
-254
-255
-253
-254
-253
-252
-255
-252
-253
-252
-252
-252
-251
-251
-250
-251
-251
-251
-251
-251
-249
-250
-251
-250
-250
-251
-250
-248
-248
-248
-247
-249
-248
-249
-248
-248
-246
-247
-246
-246
-245
-246
-247
-245
-246
-245
-244
-245
-244
-244
-244
-243
-243
-243
-243
-242
-242
-241
-241
-242
-243
-241
-241
-242
-241
-239
-239
-240
-241
-240
-239
-239
-239
-239
-240
-239
-240
-239
-239
-239
-237
-237
-236
-238
-236
-236
-237
-234
-236
-235
-236
-237
-234
-235
-235
-234
-233
-235
-234
-235
-234
-235
-234
-231
-232
-233
-232
-232
-234
-230
-274
-1286
-1423
-1379
-1398
-1376
-1375
-1363
-1357
-1342
-1329
-1314
-1299
-1283
-1272
-1275
-1280
-1269
-1257
-1255
-1253
-1248
-1243
-1247
-1254
-1249
-1231
-1230
-1236
-1240
-1229
-1213
-1210
-1215
-1215
-1211
-1206
-1199
-1202
-1202
-1202
-1209
-1210
-1213
-1211
-1217
-1223
-1228
-1238
-1250
-1258
-1258
-1259
-1262
-1274
-1259
-1261
-1283
-1312
-1327
-1320
-1321
-1319
-1325
-1327
-1326
-1328
-1330
-1338
-1340
-1340
-1337
-1328
-1313
-1305
-1313
-1313
-1286
-1255
-1246
-1244
-1221
-1179
-1156
-1157
-1152
-1137
-1117
-1109
-1100
-1091
-1085
-1078
-1079
-1078
-1070
-1043
-1023
-1038
-1052
-1052
-1037
-1031
-1032
-1037
-1034
-1031
-1027
-1035
-1049
-1050
-1051
-1048
-1041
-1035
-1029
-1023
-1018
-1026
-1021
-1001
-982
-964
-958
-947
-939
-936
-927
-916
-904
-890
-877
-860
-853
-845
-830
-826
-831
-844
-853
-855
-844
-829
-823
-828
-833
-834
-839
-854
-860
-853
-843
-837
-831
-816
-807
-805
-804
-798
-793
-794
-794
-789
-787
-795
-798
-788
-780
-773
-762
-749
-736
-714
-698
-682
-669
-645
-618
-592
-572
-553
-532
-510
-487
-477
-470
-461
-453
-450
-451
-450
-446
-441
-447
-460
-474
-489
-506
-524
-541
-563
-591
-612
-625
-640
-659
-687
-720
-757
-795
-830
-853
-872
-888
-906
-925
-939
-948
-960
-959
-948
-929
-911
-892
-872
-852
-837
-825
-803
-782
-764
-752
-741
-725
-712
-706
-698
-683
-665
-657
-652
-643
-629
-614
-609
-613
-613
-607
-601
-596
-602
-612
-610
-599
-592
-597
-598
-597
-589
-589
-590
-593
-591
-578
-569
-563
-555
-546
-537
-531
-522
-514
-503
-501
-501
-506
-516
-527
-538
-553
-578
-597
-604
-619
-649
-683
-711
-738
-765
-794
-819
-840
-859
-876
-889
-901
-908
-910
-906
-900
-897
-897
-888
-872
-858
-853
-850
-841
-830
-831
-830
-826
-831
-836
-843
-856
-874
-892
-910
-922
-939
-960
-977
-1004
-1021
-1032
-1046
-1051
-1057
-1061
-1067
-1066
-1050
-1028
-1016
-1014
-1011
-999
-993
-992
-988
-977
-965
-950
-936
-923
-910
-895
-883
-874
-871
-875
-867
-852
-835
-821
-805
-787
-774
-761
-741
-722
-701
-686
-671
-654
-646
-651
-659
-656
-652
-654
-668
-681
-695
-713
-721
-718
-713
-707
-705
-697
-684
-682
-669
-661
-655
-657
-673
-685
-685
-686
-701
-714
-721
-713
-714
-734
-746
-746
-742
-753
-771
-781
-780
-780
-794
-810
-829
-846
-853
-869
-878
-886
-898
-913
-927
-936
-949
-965
-989
-1020
-1048
-1068
-1089
-1111
-1137
-1157
-1173
-1164
-1167
-1202
-1231
-1246
-1265
-1286
-1284
-1274
-1291
-1292
-1272
-1298
-1362
-1414
-1421
-1422
-1460
-1498
-1504
-1477
-1433
-1367
-1274
-1146
-1006
-828
-642
-456
-255
-51
176
389
602
826
1045
1245
1432
1608
1783
1954
2131
2286
2418
2560
2699
2821
2920
3012
3101
3171
3214
3250
3264
3257
3233
3192
3118
3011
2892
2748
2576
2386
2179
1956
1722
1479
1229
971
711
444
191
-49
-273
-488
-685
-858
-1010
-1142
-1248
-1333
-1397
-1440
-1467
-1480
-1478
-1471
-1464
-1470
-1470
-1461
-1444
-1431
-1414
-1398
-1397
-1392
-1380
-1369
-1359
-1341
-1307
-1278
-1279
-1292
-1285
-1284
-1288
-1297
-1307
-1311
-1299
-1275
-1258
-1272
-1294
-1287
-1252
-1214
-1166
-1094
-1019
-961
-900
-836
-771
-710
-653
-592
-526
-455
-379
-299
-211
-119
-21
95
226
367
494
595
701
808
900
961
999
1018
1031
1058
1095
1153
1211
1271
1337
1373
1375
1350
1300
1214
1096
972
861
746
626
521
433
360
309
279
260
253
261
264
261
236
188
129
57
-34
-145
-261
-368
-485
-603
-720
-807
-873
-923
-961
-991
-1007
-1016
-1019
-1021
-1036
-1040
-1043
-1049
-1072
-1102
-1133
-1171
-1216
-1262
-1314
-1368
-1427
-1492
-1550
-1610
-1679
-1740
-1774
-1789
-1806
-1814
-1796
-1758
-1707
-1644
-1553
-1448
-1341
-1220
-1098
-974
-845
-717
-590
-451
-315
-179
-47
84
193
275
335
404
465
493
505
521
543
539
523
496
471
442
412
392
380
374
377
392
421
457
515
603
686
745
810
900
983
1064
1144
1232
1295
1342
1391
1430
1461
1474
1497
1497
1475
1430
1382
1343
1297
1234
1168
1096
1012
931
856
776
698
619
544
470
387
306
220
148
74
6
-56
-118
-174
-225
-277
-319
-350
-366
-380
-400
-415
-418
-425
-431
-438
-443
-450
-446
-428
-420
-417
-433
-434
-428
-428
-427
-427
-421
-409
-396
-396
-390
-383
-368
-354
-347
-340
-335
-331
-317
-309
-307
-303
-294
-278
-273
-274
-279
-277
-288
-306
-308
-303
-300
-308
-311
-312
-307
-299
-295
-286
-275
-260
-250
-251
-250
-229
-215
-228
-222
-212
-202
-194
-194
-194
-196
-197
-190
-172
-153
-145
-143
-146
-127
-118
-135
-139
-130
-116
-106
-102
-104
-93
-87
-90
-61
-42
-44
-37
-29
-9
-2
0
10
23
32
52
68
72
68
71
74
72
72
78
86
99
104
108
113
111
101
102
113
121
127
136
140
145
156
159
166
183
196
209
218
230
243
258
275
296
311
319
320
317
309
305
306
318
337
351
351
359
367
369
366
370
382
388
382
381
372
373
382
381
367
363
370
372
360
343
329
316
296
286
274
259
250
240
221
198
185
171
140
122
110
97
76
57
48
29
-14
-50
-66
-70
-90
-115
-127
-139
-149
-162
-183
-200
-218
-229
-241
-270
-281
-291
-294
-299
-296
-315
-341
-327
-311
-321
-353
-351
-332
-330
-343
-352
-360
-365
-368
-368
-372
-371
-368
-379
-387
-391
-400
-406
-412
-419
-430
-431
-429
-429
-443
-454
-473
-487
-508
-526
-495
-469
-476
-535
-530
-536
-544
-539
-526
-586
-625
-580
-533
-576
-629
-588
-567
-553
-597
-633
-650
-629
-637
-620
-610
-597
-612
-637
-619
-590
-588
-606
-584
-548
-529
-534
-531
-515
-507
-507
-510
-494
-458
-440
-436
-408
-364
-334
-320
-304
-291
-280
-269
-255
-239
-230
-222
-209
-199
-197
-194
-193
-189
-188
-196
-212
-258
-257
-216
-191
-209
-193
-221
-224
-187
-183
-198
-229
-204
-192
-214
-266
-245
-160
-136
-176
-204
-179
-155
-167
-182
-172
-142
-130
-127
-128
-118
-100
-86
-77
-70
-90
-82
-36
-17
-17
-11
10
11
1
-7
-10
-10
-7
4
14
13
-3
-15
7
38
52
51
62
78
85
76
64
60
57
66
69
64
59
58
44
29
27
32
55
63
55
50
56
61
48
41
55
63
58
54
53
50
36
25
12
-2
-19
-33
-34
-35
-42
-58
-69
-73
-78
-85
-91
-95
-105
-114
-101
-85
-85
-99
-106
-97
-140
-157
-101
-68
-91
-105
-89
-73
-66
-61
-49
-36
-32
-24
-14
-12
-7
4
24
32
19
35
60
66
57
64
69
65
68
61
43
46
54
63
62
48
34
26
23
7
-12
-20
-35
-55
-72
-77
-88
-101
-109
-127
-161
-189
-199
-208
-209
-210
-214
-218
-224
-225
-228
-231
-234
-232
-225
-226
-231
-241
-238
-225
-225
-217
-216
-214
-214
-215
-217
-216
-216
-204
-194
-181
-169
-160
-148
-129
-116
-107
-97
-88
-80
-84
-109
-96
-63
-52
-60
-71
-68
-66
-67
-68
-61
-40
-26
-19
-15
0
16
21
12
16
22
22
20
18
-2
12
40
43
37
28
17
23
16
15
34
28
-5
-12
15
42
48
43
50
73
71
63
78
76
72
83
84
86
84
85
93
95
102
110
128
135
137
123
130
101
123
158
210
226
229
243
250
241
232
255
271
272
266
273
279
276
270
271
282
288
280
273
276
271
264
265
255
240
246
274
287
288
299
315
317
307
300
290
278
279
254
236
246
249
234
204
197
205
206
206
201
205
210
211
210
216
227
233
234
237
236
242
244
246
253
261
271
283
292
301
309
295
303
327
346
344
336
336
343
338
312
302
306
305
286
267
249
235
235
226
203
170
129
147
173
177
164
163
167
166
141
125
104
100
83
63
55
33
22
15
36
64
67
51
31
27
0
-7
11
22
-26
-97
-70
-30
-15
-26
-23
-22
-44
-71
-70
-68
-88
-100
-79
-57
-63
-73
-69
-59
-55
-73
-106
-91
-94
-92
-92
-69
-51
-46
-42
-51
-34
-20
-21
-32
-29
-30
-33
-29
-22
-15
-18
-43
-62
-58
-69
-97
-123
-128
-134
-157
-181
-197
-204
-214
-226
-246
-259
-261
-257
-251
-249
-250
-255
-250
-245
-240
-225
-219
-220
-222
-237
-238
-225
-226
-216
-213
-213
-216
-219
-220
-222
-216
-216
-211
-202
-191
-197
-200
-160
-133
-154
-183
-138
-93
-86
-94
-86
-67
-58
-52
-38
-33
-34
-34
-17
-31
-55
-18
30
39
19
-5
8
10
-5
14
28
36
33
32
33
31
35
21
12
11
-1
-11
-24
-16
-16
-20
-33
-42
-46
-55
-44
-46
-52
-53
-50
-59
-75
-87
-90
-83
-71
-59
-49
-41
-35
-32
-34
-37
-21
12
27
35
44
54
62
71
89
107
121
125
149
176
189
189
179
191
195
190
192
206
209
216
225
241
259
271
272
273
277
280
283
298
320
341
353
353
360
371
378
384
375
357
379
413
424
422
424
432
431
446
480
507
533
547
574
615
656
690
731
789
873
953
1023
1108
1201
1290
1355
1424
1559
1749
1960
2172
2424
2699
2950
3122
3184
3150
3036
2860
2596
2281
2046
1859
1648
1395
1224
996
674
294
-94
-485
-919
-1320
-1667
-1979
-2266
-2539
-2767
-2958
-3120
-3263
-3372
-3451
-3497
-3511
-3500
-3445
-3351
-3230
-3087
-2930
-2760
-2581
-2396
-2219
-2050
-1892
-1738
-1588
-1431
-1277
-1122
-976
-842
-713
-592
-484
-367
-253
-161
-66
32
130
214
304
403
501
600
714
832
951
1067
1183
1285
1385
1486
1582
1668
1757
1833
1884
1917
1932
1939
1929
1897
1860
1807
1738
1660
1583
1491
1375
1250
1170
1083
965
835
717
606
489
373
268
167
65
-47
-150
-234
-313
-385
-447
-495
-541
-577
-596
-599
-592
-582
-551
-506
-455
-405
-343
-276
-220
-153
-80
-13
47
94
139
193
243
280
313
345
373
387
395
411
432
449
453
452
451
444
439
425
407
385
380
382
366
343
330
312
295
284
274
278
283
279
268
252
250
250
255
250
252
257
259
260
263
265
272
285
288
283
288
303
314
316
335
344
347
362
380
410
441
475
491
533
582
632
669
709
757
790
823
847
876
864
843
843
850
832
788
767
754
753
746
747
745
736
717
690
670
645
609
557
506
443
380
313
231
164
93
23
-57
-141
-211
-284
-358
-427
-484
-526
-563
-598
-630
-661
-681
-687
-688
-686
-683
-679
-661
-641
-628
-624
-636
-621
-599
-607
-614
-606
-595
-590
-591
-586
-588
-587
-572
-540
-491
-460
-444
-423
-390
-360
-342
-332
-304
-266
-229
-202
-170
-128
-89
-54
-15
33
87
130
171
206
240
274
304
317
332
366
410
436
441
453
464
464
480
486
484
480
484
472
454
445
437
431
422
405
392
384
348
314
317
310
293
273
275
212
202
239
217
182
153
150
142
125
105
91
76
51
31
8
-13
-23
-30
-39
-49
-55
-77
-111
-118
-144
-157
-169
-186
-206
-231
-258
-278
-287
-290
-292
-313
-336
-343
-353
-370
-390
-406
-411
-411
-397
-398
-391
-380
-370
-367
-369
-377
-386
-385
-385
-386
-413
-408
-374
-359
-369
-374
-362
-357
-365
-376
-386
-355
-324
-322
-319
-308
-303
-301
-300
-309
-327
-334
-331
-323
-325
-336
-344
-346
-346
-349
-348
-350
-355
-350
-340
-328
-318
-312
-295
-280
-268
-256
-242
-232
-213
-196
-177
-151
-125
-103
-76
-60
-47
-22
3
22
33
51
71
75
67
68
73
73
79
87
88
87
90
105
112
108
110
122
125
106
99
106
104
89
78
75
73
63
54
57
63
61
49
38
27
18
17
20
26
27
25
33
46
42
26
16
25
37
38
29
31
30
19
17
23
29
24
18
18
18
22
22
37
49
54
73
91
105
117
132
140
141
137
138
153
157
172
179
186
193
181
173
170
173
173
170
169
181
191
184
184
194
190
186
187
179
168
166
164
165
163
165
169
167
159
140
129
127
130
125
123
117
110
112
112
116
124
124
121
125
137
139
136
135
150
155
147
143
153
169
180
202
234
259
273
290
312
321
335
364
393
414
436
459
474
471
468
476
481
486
492
493
491
487
493
496
495
488
486
480
471
464
448
429
420
421
412
401
402
405
405
393
376
357
341
321
301
296
297
286
270
270
270
273
285
300
308
299
287
274
268
262
267
290
314
282
185
59
-78
-226
-363
-461
-512
-535
-540
-535
-524
-517
-505
-478
-451
-432
-401
-349
-291
-232
-177
-103
-32
24
83
133
176
207
233
254
267
279
297
314
319
314
316
309
291
271
254
246
245
233
222
217
208
199
185
173
152
138
135
131
121
109
106
111
120
124
133
148
163
172
179
190
203
209
215
230
246
254
255
260
267
269
272
281
293
306
307
307
314
330
352
367
374
381
388
397
403
399
407
420
428
424
419
426
427
412
400
394
397
397
393
387
376
360
343
335
329
317
300
291
277
251
229
206
179
161
136
101
76
69
65
47
22
10
5
3
-1
0
0
-8
-11
-10
-5
-2
-4
4
16
20
23
24
30
35
36
44
52
63
79
89
101
113
127
143
145
144
149
160
165
161
160
163
164
165
157
136
121
116
108
83
63
67
68
50
35
31
23
0
-17
-23
-35
-41
-39
-40
-49
-60
-65
-68
-70
-81
-89
-68
-34
-16
-26
-55
-93
-135
-185
-233
-263
-285
-299
-304
-313
-314
-316
-316
-300
-278
-261
-245
-224
-195
-170
-147
-115
-70
-22
10
40
73
112
151
173
181
198
229
253
266
269
278
282
282
285
283
274
273
283
293
283
275
285
299
306
298
285
274
265
268
262
255
260
263
254
240
233
237
233
210
181
168
167
163
155
145
132
116
102
97
94
92
86
85
88
86
80
83
88
82
75
73
77
70
65
56
48
46
53
58
57
60
60
59
62
66
60
47
43
38
32
20
13
8
5
5
-10
-26
-39
-50
-64
-77
-83
-79
-77
-90
-105
-111
-121
-136
-150
-157
-163
-165
-161
-166
-160
-155
-150
-143
-131
-127
-137
-135
-120
-112
-119
-128
-131
-117
-107
-102
-95
-80
-65
-57
-49
-39
-27
-16
3
20
32
43
53
56
53
47
44
57
76
92
99
105
128
146
140
140
146
150
156
166
168
159
150
152
166
162
149
144
157
157
160
160
157
151
137
126
118
115
112
113
112
108
102
98
100
104
103
104
110
102
84
86
100
107
101
91
89
89
86
91
107
116
123
126
136
141
141
138
148
162
161
164
169
168
165
162
176
189
203
211
218
224
230
249
265
271
274
285
292
305
323
329
332
332
338
336
325
322
323
319
312
313
312
308
299
289
284
274
257
254
259
247
227
216
210
193
183
188
188
175
155
138
138
139
130
123
113
100
87
80
81
84
84
85
81
72
59
50
47
53
53
51
52
51
53
45
33
33
49
66
66
63
63
65
70
76
82
97
111
125
136
131
129
130
136
144
136
130
127
125
116
103
100
94
82
70
64
61
26
18
35
45
37
24
23
20
19
15
13
2
-7
-23
-25
-14
-9
-14
-24
-30
-30
-21
0
15
10
-1
-14
9
30
50
62
60
71
77
74
73
76
72
51
33
47
66
80
85
92
94
99
107
99
108
117
106
101
103
106
106
94
87
90
85
75
61
68
70
67
64
67
66
58
50
43
44
49
51
51
54
62
60
47
59
71
91
102
98
77
69
77
75
67
52
43
45
39
30
35
43
37
28
30
32
21
2
-1
3
-3
-6
-12
-17
-20
-17
-17
-13
0
4
-3
-2
13
31
36
39
43
48
47
58
63
59
55
45
47
41
15
26
55
65
58
61
80
82
69
74
91
94
85
87
95
89
76
73
85
86
73
57
43
50
44
36
26
26
21
-3
-9
-9
-39
-31
-34
-18
-47
-62
-33
-12
8
-1
3
15
17
-1
-2
11
5
-13
-6
19
39
49
53
64
65
61
47
57
83
90
91
99
107
100
93
96
107
113
103
91
95
104
103
87
81
102
102
92
74
70
78
80
71
64
57
54
43
39
44
49
51
51
46
22
7
7
14
12
6
3
8
8
9
14
21
26
26
24
32
34
28
33
50
59
54
46
44
55
57
53
61
80
94
93
83
89
98
103
74
53
116
135
130
116
130
140
135
142
153
158
162
172
182
178
170
173
186
185
184
187
187
198
181
165
148
140
116
114
130
134
124
118
121
111
80
60
56
64
63
54
48
47
45
48
48
59
56
59
27
33
74
74
79
83
88
75
64
63
70
65
60
71
81
72
59
51
46
49
54
61
59
65
82
96
92
91
94
96
99
102
95
77
62
58
72
68
68
63
61
54
48
48
35
24
11
5
5
9
1
-15
-34
-56
-78
-106
-133
-161
-182
-196
-198
-205
-224
-238
-237
-235
-233
-243
-251
-274
-309
-299
-284
-278
-282
-261
-241
-221
-210
-206
-190
-172
-152
-123
-80
-55
-32
3
40
77
116
147
168
192
231
255
260
255
263
276
278
275
269
262
250
234
212
195
189
180
160
134
113
92
69
39
-12
-5
0
-12
-33
-47
-45
-57
-61
-56
-69
-98
-119
-121
-117
-111
-114
-105
-106
-110
-112
-109
-98
-102
-111
-103
-91
-88
-92
-92
-92
-98
-101
-101
-103
-107
-109
-108
-112
-116
-117
-120
-126
-117
-102
-94
-94
-89
-76
-70
-61
-60
-50
-31
-29
-40
-36
-16
-6
-4
-9
-16
-26
-39
-39
-35
-35
-36
-42
-51
-63
-69
-72
-75
-70
-71
-70
-69
-71
-72
-73
-90
-108
-112
-106
-116
-122
-102
-86
-81
-84
-81
-76
-64
-52
-41
-30
-22
-19
-20
-15
6
23
33
41
46
52
62
75
80
84
75
57
28
-9
-43
-69
-103
-144
-187
-228
-257
-283
-308
-315
-315
-312
-301
-288
-268
-235
-199
-169
-138
-99
-45
1
36
73
121
160
183
206
227
249
268
277
287
287
284
285
291
291
280
278
291
306
304
301
305
307
296
277
274
273
253
217
186
171
149
114
90
75
59
40
26
38
52
53
68
97
134
167
192
224
262
298
329
347
361
376
425
434
414
378
363
357
344
327
303
296
273
239
200
166
140
115
76
30
0
-35
-79
-118
-139
-152
-167
-174
-173
-163
-146
-129
-107
-82
-59
-33
8
63
117
160
195
218
261
309
337
354
345
318
278
230
186
146
119
108
104
104
111
124
126
126
125
124
126
137
143
151
163
173
180
173
164
166
166
148
122
91
65
42
21
2
-27
-66
-103
-132
-166
-208
-230
-213
-175
-129
-89
-47
-10
25
64
88
105
132
157
176
181
190
192
182
164
146
120
94
72
43
4
-40
-86
-139
-219
-244
-222
-224
-255
-285
-298
-310
-327
-338
-330
-328
-336
-342
-333
-326
-324
-331
-325
-311
-311
-302
-264
-223
-196
-173
-140
-113
-83
-54
-26
0
14
44
49
63
115
146
157
164
187
210
222
222
224
236
236
240
190
53
109
231
279
253
233
233
234
219
187
166
160
139
104
81
80
72
55
43
22
2
-8
-15
-16
-19
-23
-24
-33
-39
-43
-53
-53
-55
-69
-77
-76
-74
-77
-88
-99
-97
-87
-83
-88
-87
-90
-93
-99
-103
-113
-119
-125
-137
-139
-132
-135
-158
-175
-175
-190
-210
-214
-210
-213
-229
-234
-231
-229
-244
-263
-269
-270
-271
-260
-257
-260
-254
-253
-252
-250
-235
-219
-206
-202
-207
-203
-187
-162
-149
-143
-132
-111
-91
-80
-61
-42
-29
-11
17
45
58
63
78
99
117
129
140
155
168
172
175
189
214
237
257
277
290
301
309
310
311
317
324
327
321
322
328
321
313
312
317
320
323
341
351
361
385
425
467
497
522
538
539
519
476
401
303
198
80
-48
-184
-314
-440
-570
-698
-809
-890
-945
-976
-995
-1008
-1023
-1028
-1025
-1043
-1066
-1092
-1135
-1193
-1243
-1278
-1298
-1323
-1344
-1347
-1335
-1313
-1279
-1223
-1160
-1078
-960
-796
-607
-418
-206
27
273
540
814
1085
1348
1605
1859
2109
2353
2575
2793
2997
3185
3346
3482
3592
3673
3715
3721
3693
3643
3579
3481
3350
3201
3036
2844
2641
2423
2189
1949
1703
1436
1157
884
614
343
70
-196
-446
-681
-894
-1079
-1244
-1396
-1529
-1637
-1720
-1783
-1827
-1859
-1878
-1878
-1858
-1832
-1799
-1757
-1701
-1643
-1596
-1553
-1513
-1475
-1450
-1433
-1422
-1416
-1407
-1414
-1428
-1445
-1456
-1454
-1453
-1448
-1427
-1377
-1323
-1245
-1154
-1046
-927
-789
-633
-479
-321
-155
17
177
313
443
580
716
834
931
1024
1119
1211
1299
1377
1459
1557
1658
1752
1842
1934
2013
2075
2123
2161
2198
2229
2254
2275
2300
2317
2324
2322
2319
2306
2281
2244
2205
2158
2094
2019
1931
1841
1748
1640
1528
1413
1293
1170
1043
925
822
736
660
580
505
437
378
325
277
234
188
136
73
3
-79
-176
-282
-379
-472
-594
-714
-811
-903
-1025
-1155
-1241
-1308
-1399
-1497
-1585
-1643
-1704
-1765
-1805
-1833
-1854
-1866
-1880
-1896
-1905
-1887
-1869
-1852
-1839
-1820
-1813
-1794
-1772
-1748
-1727
-1714
-1694
-1664
-1639
-1618
-1597
-1572
-1536
-1493
-1446
-1393
-1337
-1278
-1207
-1140
-1076
-1013
-940
-864
-798
-735
-674
-606
-550
-509
-469
-431
-396
-364
-339
-317
-290
-271
-242
-200
-176
-161
-138
-86
-16
49
119
207
291
360
424
508
604
686
756
835
923
994
1043
1094
1153
1198
1231
1254
1269
1280
1275
1252
1224
1186
1132
1067
1013
963
905
834
768
714
660
594
533
489
451
408
372
348
326
296
279
275
255
234
225
231
228
206
182
177
189
191
174
159
146
140
134
116
100
90
70
49
34
17
10
-6
-16
-13
-22
-34
-44
-46
-47
-53
-48
-33
-22
-31
-36
-14
1
1
-2
-4
-14
-29
-43
-46
-48
-68
-96
-99
-106
-127
-152
-157
-153
-157
-158
-155
-150
-144
-138
-130
-129
-120
-100
-86
-72
-59
-53
-46
-36
-30
-22
-8
9
24
23
28
62
97
114
116
133
152
175
192
204
207
227
250
266
271
266
275
286
293
289
287
290
292
286
277
266
267
273
277
273
268
261
254
243
229
216
208
210
207
200
187
179
167
141
118
90
74
70
82
91
81
72
65
63
56
51
45
41
41
36
36
34
33
27
20
6
10
3
-23
-43
-56
-61
-60
-52
-47
-41
-37
-26
-10
11
25
33
46
55
65
63
66
79
87
95
97
103
115
114
108
104
112
126
139
139
131
122
99
92
80
72
55
38
32
30
26
12
-2
-50
-75
-88
-98
-114
-119
-119
-125
-143
-168
-188
-206
-223
-242
-255
-240
-231
-234
-244
-274
-245
-203
-198
-211
-208
-198
-199
-202
-195
-185
-179
-169
-162
-158
-147
-137
-122
-109
-102
-87
-72
-65
-61
-46
-20
3
21
35
41
39
37
33
29
26
32
50
56
31
20
24
25
16
5
-1
-9
-20
-16
-17
-28
-36
-37
-39
-50
-65
-79
-82
-82
-79
-85
-100
-99
-95
-110
-123
-96
-84
-76
-78
-72
-72
-75
-69
-54
-43
-37
-31
-23
-24
-30
-38
-29
-8
-2
-4
2
17
28
45
65
75
85
92
101
109
107
112
116
107
100
97
120
119
108
113
112
105
106
111
95
80
77
48
29
29
44
43
31
26
32
45
41
23
9
0
-15
-35
-32
-27
-39
-64
-82
-87
-99
-120
-133
-139
-130
-128
-134
-140
-138
-140
-149
-143
-137
-127
-123
-116
-109
-113
-121
-123
-106
-97
-95
-81
-73
-57
-79
-66
-15
10
8
-27
17
55
53
38
38
58
54
47
47
57
48
28
43
64
64
45
32
25
7
-16
-33
-61
-78
-62
-70
-77
-96
-107
-77
-87
-165
-160
-80
-45
-58
-79
-79
-69
-57
-60
-69
-64
-52
-44
-40
-44
-49
-50
-45
-31
-20
-17
-16
-20
-28
-38
-45
-49
-51
-39
-40
-41
-85
-86
-49
3
4
-9
20
49
53
20
14
25
28
22
24
29
27
24
27
30
16
9
-17
-45
-32
-10
-5
-32
-85
-81
-47
-27
-31
-43
-54
-66
-75
-84
-91
-98
-111
-121
-124
-136
-144
-135
-138
-148
-155
-156
-156
-147
-146
-143
-147
-144
-139
-142
-155
-169
-141
-140
-150
-152
-160
-171
-172
-172
-165
-158
-147
-144
-148
-145
-141
-140
-155
-154
-138
-125
-126
-122
-111
-100
-94
-100
-106
-108
-115
-115
-111
-108
-102
-101
-104
-109
-108
-104
-107
-113
-115
-132
-125
-99
-90
-97
-108
-99
-91
-93
-110
-116
-115
-106
-103
-107
-107
-111
-115
-120
-117
-108
-96
-83
-77
-68
-61
-66
-60
-45
-35
-23
-12
6
11
-3
-21
-36
11
44
56
60
74
96
110
120
129
145
155
159
159
159
166
168
166
153
150
164
162
156
152
149
148
147
142
132
124
130
117
96
87
90
81
64
57
59
48
27
11
3
-6
-24
-43
-53
-60
-74
-101
-117
-125
-129
-135
-135
-129
-131
-135
-135
-131
-122
-103
-89
-78
-80
-69
-64
-60
-54
-45
-34
-29
-10
17
34
48
59
80
101
113
118
133
147
159
165
168
164
155
152
154
149
144
146
147
138
130
126
120
117
110
107
102
99
93
85
73
70
76
69
56
50
51
48
43
33
23
18
22
26
27
17
6
4
4
-2
-1
1
7
13
12
-3
-25
5
34
53
54
61
65
68
73
71
72
80
97
105
108
120
132
152
168
174
183
196
210
225
226
228
231
223
219
215
209
218
223
212
202
201
199
194
182
171
166
156
144
136
131
120
114
113
108
101
97
82
61
65
64
48
38
39
37
23
9
6
8
-6
-18
-19
-15
-29
-34
-16
-10
-12
-13
-1
4
-2
-7
-4
-4
-17
-38
-26
-3
1
5
29
46
43
44
50
58
63
55
62
71
56
55
54
49
39
27
34
36
18
-3
-14
-13
-21
-45
-65
-81
-74
-80
-96
-110
-111
-120
-121
-125
-141
-154
-153
-153
-167
-178
-197
-211
-224
-229
-235
-247
-254
-250
-247
-249
-250
-240
-230
-223
-224
-220
-211
-208
-212
-205
-196
-191
-194
-209
-220
-210
-206
-208
-203
-190
-187
-193
-195
-190
-175
-169
-172
-176
-168
-151
-137
-154
-150
-129
-117
-117
-104
-84
-61
-57
-65
-68
-62
-52
-47
-43
-41
-52
-115
-95
-25
0
-24
-24
4
17
11
3
18
23
14
-16
-26
-30
-39
-38
-31
-38
-57
-60
-58
-96
-98
-77
-77
-59
-42
-23
-28
-35
-20
-12
-13
-19
-14
-12
-16
-26
-29
-18
1
5
24
12
9
41
70
17
24
92
120
110
117
159
174
173
184
183
190
202
206
219
240
270
296
318
328
330
369
415
448
489
546
610
668
720
791
887
1002
1116
1248
1416
1528
1640
1833
1999
2078
2080
2067
2012
1893
1706
1492
1297
1100
902
692
486
265
-25
-330
-594
-885
-1211
-1515
-1790
-2044
-2285
-2483
-2650
-2783
-2879
-2962
-3022
-3060
-3067
-3050
-3012
-2927
-2802
-2662
-2518
-2357
-2186
-2004
-1819
-1633
-1443
-1260
-1088
-916
-745
-578
-427
-283
-139
-3
112
209
309
402
473
533
583
623
663
708
739
786
844
900
949
1006
1068
1120
1184
1258
1335
1405
1464
1512
1554
1588
1600
1597
1588
1568
1536
1485
1413
1340
1244
1145
1047
941
833
720
610
501
400
295
198
110
23
-62
-140
-207
-256
-303
-348
-383
-401
-406
-401
-390
-366
-333
-292
-237
-170
-104
-38
40
117
197
285
380
481
582
667
746
823
891
956
1007
1043
1076
1098
1103
1092
1067
1030
996
973
948
909
869
832
789
740
683
613
536
476
420
355
282
213
142
63
-22
-101
-182
-254
-319
-383
-444
-500
-548
-590
-628
-656
-675
-673
-662
-649
-631
-613
-580
-537
-499
-468
-434
-396
-357
-337
-325
-312
-302
-281
-273
-276
-283
-289
-289
-298
-310
-317
-319
-324
-340
-351
-347
-351
-360
-360
-350
-340
-332
-323
-300
-270
-251
-226
-193
-163
-139
-102
-52
-12
22
60
94
119
150
186
213
232
254
279
292
298
295
290
290
290
288
291
281
270
258
254
251
248
248
243
240
241
249
259
272
273
272
279
285
293
293
292
302
319
335
342
342
354
365
379
393
398
406
416
431
445
453
460
457
452
453
450
448
451
445
432
428
423
414
402
381
355
336
324
317
305
279
250
219
213
167
137
138
158
146
110
97
78
68
45
36
23
10
-1
-12
-18
-25
-36
-53
-62
-63
-55
-44
-44
-50
-57
-58
-56
-55
-62
-75
-112
-158
-131
-110
-120
-152
-168
-154
-187
-252
-258
-225
-212
-229
-232
-230
-268
-295
-264
-236
-233
-256
-262
-252
-252
-282
-285
-295
-312
-312
-302
-307
-311
-298
-282
-285
-290
-292
-292
-298
-313
-312
-301
-279
-275
-275
-282
-283
-288
-287
-263
-248
-237
-223
-206
-207
-223
-225
-212
-219
-262
-244
-204
-182
-166
-152
-134
-116
-114
-139
-125
-120
-97
-110
-109
-97
-82
-93
-127
-136
-144
-163
-196
-204
-295
-342
-296
-251
-305
-323
-307
-268
-266
-293
-285
-288
-299
-323
-330
-333
-332
-342
-358
-359
-356
-354
-366
-383
-383
-406
-414
-390
-352
-341
-346
-338
-331
-321
-324
-334
-338
-329
-328
-336
-342
-326
-320
-328
-337
-323
-301
-293
-299
-292
-268
-249
-241
-231
-219
-213
-212
-203
-200
-200
-207
-210
-210
-214
-225
-226
-225
-225
-230
-242
-247
-238
-235
-240
-244
-245
-249
-254
-251
-254
-257
-249
-244
-246
-232
-218
-215
-214
-213
-215
-219
-210
-187
-172
-170
-180
-173
-164
-157
-138
-111
-88
-77
-73
-54
-35
-21
-11
3
22
33
37
37
31
28
35
51
69
81
81
82
82
88
97
105
121
143
153
158
151
157
169
169
167
161
167
167
164
169
177
185
185
179
170
161
152
146
134
120
120
110
102
97
81
74
72
69
53
36
25
8
-1
-4
-2
8
7
-20
-37
-42
-38
-32
-36
-27
-10
-3
6
20
26
28
28
27
36
49
53
39
36
54
71
82
93
99
96
93
109
127
140
140
147
163
174
172
177
191
195
190
193
205
210
214
206
193
182
185
195
205
195
192
178
172
164
157
146
138
142
138
132
130
127
115
103
89
75
73
77
83
89
96
93
93
99
101
103
99
105
109
110
115
116
118
121
117
116
114
116
110
101
103
105
107
120
128
127
124
141
160
166
164
176
189
192
200
197
196
192
194
201
196
201
202
200
192
178
173
175
174
156
142
137
137
130
116
103
93
87
77
70
67
65
54
39
19
-12
-35
-48
-55
-76
-93
-107
-121
-127
-133
-137
-137
-134
-133
-141
-147
-154
-157
-160
-151
-155
-164
-165
-158
-152
-149
-141
-122
-102
-91
-89
-81
-68
-51
-41
-30
-14
1
11
28
48
50
47
52
68
82
95
113
130
131
123
127
135
141
145
145
151
157
153
147
148
143
131
119
111
105
94
75
59
50
35
22
20
14
12
15
16
4
-4
-1
7
7
-7
-3
9
11
10
16
13
16
22
32
41
37
36
43
47
46
52
72
90
100
107
119
134
142
154
174
187
192
195
192
191
195
199
211
218
216
216
224
228
219
212
213
220
213
201
204
201
194
188
184
179
174
166
160
156
155
158
155
151
134
108
89
73
59
47
35
28
30
25
10
-2
-9
-5
-9
-20
-19
-16
-18
-18
-22
-27
-32
-41
-42
-37
-33
-34
-28
-22
-23
-17
-13
-12
-8
-14
-12
-10
-9
-7
-15
-32
-30
-24
-25
-22
-16
-12
-21
-29
-37
-44
-42
-35
-32
-33
-30
-36
-46
-47
-40
-42
-52
-46
-36
-37
-47
-44
-34
-30
-45
-66
-72
-71
-75
-82
-86
-92
-101
-108
-115
-107
-95
-87
-86
-92
-88
-80
-84
-91
-84
-79
-76
-72
-65
-67
-65
-53
-42
-36
-38
-32
-27
-24
-18
-13
-7
5
20
31
41
42
45
43
40
41
45
45
51
64
69
68
64
64
69
78
84
93
93
73
68
81
83
75
68
71
70
63
60
50
38
24
17
20
34
39
37
37
44
49
50
49
56
66
74
80
77
77
87
83
88
89
82
78
74
67
48
41
42
47
57
61
63
69
73
83
91
95
103
107
102
96
87
89
92
96
107
102
88
78
68
63
59
69
71
64
51
49
48
47
32
18
-66
-51
10
17
6
-6
-4
-100
-111
-14
-73
-105
-49
-9
-6
-40
-59
-62
-50
-74
-113
-98
-109
-119
-86
-80
-72
-99
-127
-121
-104
-82
-90
-82
-98
-78
-62
-63
-62
-55
-41
-59
-55
-28
9
12
-4
-67
-24
15
32
-35
-116
-27
58
73
32
54
83
71
29
9
39
81
73
56
32
-1
-34
-30
4
-3
-31
-54
-69
-85
-110
-146
-165
-155
-160
-203
-243
-254
-230
-228
-246
-285
-328
-350
-348
-337
-329
-337
-316
-296
-290
-279
-265
-249
-240
-239
-229
-212
-213
-222
-225
-238
-218
-191
-179
-157
-132
-125
-118
-106
-88
-72
-70
-66
-56
-60
-71
-71
-76
-78
-76
-97
-126
-122
-106
-126
-140
-115
-85
-77
-87
-89
-86
-96
-94
-86
-79
-78
-78
-80
-67
-53
-45
-64
-61
-53
-67
-65
-52
-24
-5
23
52
95
142
189
237
280
326
371
396
414
429
441
451
440
421
410
400
383
354
321
290
262
242
227
221
219
211
210
209
206
206
208
212
219
228
239
253
262
273
275
270
278
300
314
318
315
327
331
315
300
298
290
273
268
257
252
265
268
259
238
217
191
183
181
157
137
121
117
113
95
76
47
-11
7
33
53
34
32
41
46
37
35
39
44
-14
-12
59
72
71
44
42
64
84
90
93
97
93
102
119
119
117
121
127
123
114
111
109
100
85
70
70
62
51
51
36
-2
-33
-12
-50
-104
-86
-40
-23
-71
-93
-88
-92
-111
-125
-126
-123
-145
-159
-240
-255
-225
-197
-194
-227
-218
-212
-206
-210
-199
-257
-277
-201
-180
-188
-207
-173
-160
-166
-207
-198
-162
-161
-167
-174
-165
-165
-188
-194
-167
-153
-130
-119
-118
-145
-112
-63
-57
-56
-57
-42
-25
-17
-29
-26
-12
-6
-15
-26
-20
-9
4
-2
-11
-22
-94
-45
3
17
-19
-30
3
25
-1
-43
23
52
52
30
5
14
14
-50
-63
15
13
3
-132
-262
-161
-64
-43
-80
-79
-104
-64
-26
-35
-22
-45
-24
-112
-185
-47
-23
-19
-64
-92
-68
-64
-35
-40
-40
-14
-24
-46
-96
-57
-12
-16
-24
-62
-116
-23
33
36
16
13
48
0
8
42
54
41
8
10
14
16
-3
-5
1
-11
-25
-32
-35
-34
-35
-80
-135
-107
-73
-140
-95
-74
-73
-92
-103
-93
-88
-94
-113
-112
-113
-117
-120
-137
-216
-194
-126
-112
-118
-200
-187
-123
-91
-116
-138
-130
-135
-153
-167
-130
-116
-110
-114
-104
-77
-71
-69
-61
-56
-46
-28
-24
-41
-54
-40
-33
-30
-42
-43
-55
-50
-54
-79
-78
-82
-58
-52
-46
-62
-76
-66
-75
-86
-132
-121
-82
-86
-183
-224
-56
24
28
-27
-20
-27
-28
-16
-46
-38
-46
-46
-74
-82
-68
-58
-53
-60
-59
-59
-70
-63
-34
-69
-95
-41
7
11
-41
-32
17
28
-4
4
68
93
82
62
79
59
82
18
-31
104
139
138
104
116
152
154
133
112
122
95
109
124
130
129
108
110
119
53
48
133
138
112
84
94
109
79
35
85
99
97
63
59
68
69
59
56
56
40
37
36
37
35
29
27
20
22
33
38
40
52
59
48
43
44
41
32
26
14
54
68
58
57
61
66
62
55
57
64
65
31
15
57
78
70
64
80
79
74
73
74
82
67
63
70
82
71
50
36
26
23
20
8
-6
-20
-34
-44
-60
-73
-77
-86
-111
-141
-158
-158
-166
-182
-188
-201
-212
-222
-240
-252
-263
-269
-274
-278
-276
-271
-280
-285
-275
-262
-255
-262
-265
-258
-258
-255
-244
-228
-220
-224
-222
-209
-189
-174
-161
-145
-131
-130
-125
-124
-129
-125
-117
-107
-98
-95
-86
-84
-75
-67
-61
-47
-27
-11
-4
5
18
20
12
13
18
20
24
30
35
40
39
47
52
52
47
47
56
59
41
36
53
49
36
9
-2
-9
-21
-33
-58
-79
-86
-94
-104
-118
-122
-119
-114
-107
-103
-96
-89
-68
-41
-23
-17
-14
-5
11
31
48
58
63
61
63
51
33
30
15
2
-11
-28
-43
-59
-84
-108
-123
-128
-138
-150
-160
-161
-165
-169
-171
-162
-161
-151
-130
-121
-120
-102
-80
-72
-81
-81
-70
-55
-44
-32
-15
-9
-17
-17
-14
-21
-20
-24
-22
-12
-4
8
20
23
24
29
28
26
34
46
45
38
43
55
75
85
96
114
140
176
200
214
228
245
260
279
291
292
291
292
297
292
293
295
292
286
271
263
253
244
237
221
210
202
175
149
128
102
78
61
45
27
6
-19
-37
-44
-65
-92
-104
-106
-106
-120
-134
-158
-183
-196
-197
-197
-206
-201
-189
-191
-203
-211
-212
-205
-198
-205
-207
-199
-185
-179
-183
-176
-162
-138
-120
-105
-88
-71
-48
-21
-3
12
26
33
51
59
64
77
76
80
82
86
98
101
98
98
106
117
121
124
130
144
148
130
116
121
120
115
111
105
98
89
80
77
71
59
44
36
37
35
27
14
-5
-10
-15
-27
-28
-25
-18
-19
-21
-27
-24
-23
-22
-23
-27
-28
-29
-24
-24
-36
-40
-35
-21
-8
-2
2
8
15
20
16
15
14
11
6
-2
-23
-42
-52
-51
-68
-93
-108
-114
-116
-132
-144
-140
-138
-138
-139
-136
-133
-141
-140
-127
-123
-121
-118
-108
-94
-89
-90
-88
-78
-75
-69
-55
-40
-30
-24
-22
-26
-21
-13
-7
1
8
20
25
28
35
45
48
57
64
66
64
64
73
73
64
54
60
80
90
89
88
93
102
103
97
90
94
91
90
83
75
66
45
37
31
21
11
-1
-7
-11
-28
-45
-43
-40
-56
-73
-73
-76
-83
-91
-94
-93
-88
-88
-94
-98
-109
-117
-116
-126
-143
-158
-164
-159
-155
-166
-185
-184
-180
-185
-180
-181
-181
-191
-199
-198
-197
-199
-198
-197
-197
-193
-191
-190
-191
-188
-182
-175
-152
-128
-111
-96
-82
-65
-55
-46
-29
-14
0
13
16
24
30
36
46
53
54
59
61
57
53
61
73
76
73
71
73
71
68
74
73
67
71
81
79
71
71
70
71
65
52
40
40
38
31
21
23
22
23
20
19
35
31
20
22
28
33
28
25
38
55
63
68
79
86
87
89
94
110
136
150
159
171
177
189
212
215
219
222
227
231
220
214
218
205
192
179
164
153
137
124
112
98
85
65
49
32
20
-3
-20
-28
-30
-43
-59
-65
-67
-79
-89
-94
-101
-115
-131
-138
-140
-145
-151
-153
-151
-152
-154
-156
-155
-145
-142
-125
-114
-106
-104
-99
-87
-63
-50
-44
-35
-27
-18
-13
-4
6
20
37
46
55
59
66
80
85
87
97
115
129
130
125
136
150
157
159
162
172
183
182
178
169
171
181
180
170
161
155
140
134
129
121
109
96
85
73
69
68
58
53
45
22
5
9
17
17
-4
-23
-28
-24
-23
-34
-36
-29
-32
-46
-51
-45
-42
-47
-43
-37
-31
-30
-33
-42
-51
-50
-45
-35
-24
-15
-14
-24
-16
-8
-12
-18
-21
-19
-15
-12
-27
-40
-50
-56
-66
-87
-93
-85
-81
-98
-121
-134
-140
-151
-167
-181
-186
-196
-210
-225
-241
-266
-285
-303
-318
-326
-341
-360
-376
-389
-423
-468
-495
-509
-516
-539
-559
-580
-578
-574
-604
-622
-623
-618
-621
-616
-601
-588
-586
-573
-559
-543
-533
-510
-492
-470
-436
-408
-377
-325
-291
-280
-263
-230
-194
-160
-135
-109
-91
-65
-32
-19
-3
20
35
46
51
65
76
79
81
61
48
57
51
34
24
19
-3
-28
-33
-33
-36
-37
-45
-52
-51
-58
-84
-106
-114
-124
-142
-160
-174
-183
-205
-226
-240
-263
-275
-298
-316
-333
-348
-370
-411
-426
-439
-459
-473
-485
-500
-508
-506
-497
-477
-458
-432
-383
-310
-240
-172
-67
71
220
383
577
801
1021
1241
1455
1656
1849
2041
2214
2375
2531
2687
2835
2964
3071
3157
3228
3290
3325
3328
3304
3269
3221
3149
3057
2952
2833
2718
2584
2427
2265
2102
1922
1727
1517
1286
1047
810
567
313
58
-187
-426
-660
-888
-1099
-1291
-1464
-1610
-1737
-1841
-1922
-1979
-2028
-2051
-2050
-2033
-1997
-1951
-1899
-1841
-1789
-1733
-1675
-1619
-1574
-1545
-1523
-1505
-1487
-1478
-1484
-1489
-1491
-1490
-1478
-1470
-1444
-1405
-1359
-1294
-1216
-1123
-1013
-896
-776
-648
-502
-341
-181
-28
110
260
417
573
726
857
974
1101
1217
1309
1399
1497
1577
1635
1684
1729
1774
1820
1845
1845
1837
1843
1856
1870
1887
1896
1901
1901
1896
1870
1846
1836
1837
1835
1847
1858
1867
1877
1883
1866
1830
1796
1763
1720
1659
1576
1482
1375
1255
1138
1031
929
834
746
664
600
529
458
394
346
304
259
205
154
94
18
-60
-138
-206
-282
-364
-450
-534
-621
-704
-781
-846
-929
-1017
-1096
-1174
-1251
-1328
-1396
-1461
-1521
-1574
-1623
-1664
-1687
-1703
-1718
-1736
-1759
-1772
-1769
-1750
-1727
-1713
-1690
-1655
-1626
-1592
-1557
-1530
-1495
-1458
-1422
-1387
-1341
-1299
-1261
-1222
-1168
-1110
-1059
-1008
-950
-887
-829
-767
-699
-635
-578
-523
-472
-413
-352
-306
-263
-224
-188
-162
-144
-121
-95
-74
-64
-41
1
35
61
85
124
165
199
240
302
363
417
471
528
584
643
695
749
805
847
873
903
939
961
967
968
968
970
954
930
908
883
846
807
763
717
660
599
556
513
459
405
360
317
266
212
166
130
97
69
44
21
-10
-35
-60
-80
-94
-106
-121
-131
-145
-162
-175
-190
-201
-214
-226
-233
-248
-264
-289
-310
-315
-310
-306
-309
-321
-330
-341
-339
-332
-335
-339
-336
-321
-310
-297
-288
-287
-289
-286
-275
-262
-251
-239
-230
-214
-213
-212
-192
-172
-148
-128
-106
-89
-72
-51
-36
-34
-27
-9
5
16
25
29
30
22
18
17
28
38
40
40
45
53
57
60
67
80
88
95
103
106
107
101
92
91
84
78
80
87
82
77
81
88
80
60
55
54
50
46
55
64
59
51
53
58
51
35
38
49
47
36
29
33
35
28
16
8
7
-2
-14
-17
-17
-16
-22
-35
-49
-57
-61
-60
-62
-61
-97
-113
-72
-56
-60
-68
-63
-41
-32
-30
-18
0
13
11
13
31
53
63
75
82
90
100
97
91
88
92
94
94
100
96
88
87
97
101
87
71
61
43
24
10
-8
-27
-31
-37
-45
-59
-70
-85
-97
-109
-123
-150
-162
-157
-151
-153
-162
-154
-149
-147
-150
-141
-128
-127
-141
-158
-174
-204
-237
-255
-243
-221
-177
-158
-145
-143
-155
-179
-200
-223
-244
-253
-257
-244
-227
-214
-203
-206
-218
-208
-208
-219
-207
-172
-151
-153
-160
-153
-156
-182
-230
-225
-217
-205
-186
-180
-185
-196
-180
-164
-158
-161
-144
-113
-115
-127
-135
-130
-140
-152
-174
-180
-155
-137
-136
-132
-126
-130
-141
-155
-126
-92
-76
-79
-56
-30
-15
-15
-15
-7
-10
-19
-20
-18
-23
-31
-29
-24
-13
-1
13
29
41
47
57
77
96
108
113
123
127
120
118
124
122
115
107
109
116
113
99
72
58
46
20
-2
-10
-14
-24
-30
-26
-32
-51
-59
-59
-62
-59
-73
-91
-94
-73
-44
-39
-17
7
22
20
8
5
7
1
3
9
13
14
8
0
-2
-16
-33
-41
-54
-73
-86
-98
-128
-147
-157
-155
-138
-131
-132
-127
-116
-110
-103
-96
-92
-88
-80
-65
-65
-81
-93
-96
-97
-99
-100
-93
-81
-77
-85
-95
-91
-87
-90
-87
-79
-88
-117
-136
-135
-145
-158
-155
-147
-144
-144
-138
-122
-112
-109
-109
-107
-114
-122
-122
-112
-113
-128
-136
-137
-123
-119
-121
-115
-107
-101
-94
-79
-66
-54
-51
-40
-30
-24
-19
-13
7
22
33
36
36
41
42
39
41
44
42
31
28
29
25
17
7
0
-11
-15
-16
-18
-23
-29
-31
-37
-39
-35
-38
-49
-49
-42
-49
-62
-66
-65
-59
-57
-62
-57
-53
-57
-57
-55
-59
-70
-77
-71
-60
-56
-60
-58
-53
-57
-67
-69
-65
-59
-60
-64
-56
-53
-57
-62
-63
-58
-56
-62
-68
-65
-55
-52
-49
-26
-5
6
19
37
58
73
82
102
120
136
153
158
170
184
198
209
214
214
207
213
216
203
194
197
205
203
196
187
175
163
152
139
131
130
122
108
98
100
96
84
69
52
43
39
35
31
29
15
5
6
8
15
15
18
24
15
7
7
6
15
30
27
23
20
18
16
19
25
28
37
50
54
47
32
24
36
40
38
39
44
43
25
8
0
-7
-8
-9
-13
-19
-22
-19
-20
-23
-23
-16
-12
-7
-3
-6
-9
-17
-25
-40
-41
-25
-23
-33
-53
-60
-57
-52
-59
-90
-100
-89
-86
-95
-100
-101
-103
-104
-109
-116
-115
-119
-185
-153
-91
-69
-117
-128
-86
-75
-84
-98
-80
-64
-62
-60
-46
-14
1
-4
0
24
44
48
48
54
62
62
57
55
65
75
71
74
79
92
103
104
101
81
64
62
63
56
45
44
38
23
14
3
-10
-16
-16
-12
-11
-17
-21
-19
-16
-26
-40
-47
-45
-46
-67
-92
-102
-101
-111
-126
-135
-152
-172
-177
-167
-171
-199
-216
-208
-206
-224
-237
-240
-247
-263
-259
-235
-218
-215
-213
-202
-195
-191
-182
-178
-178
-170
-167
-164
-177
-186
-182
-190
-200
-207
-204
-201
-205
-209
-218
-226
-234
-234
-234
-237
-236
-238
-243
-249
-243
-247
-263
-274
-277
-279
-287
-297
-304
-307
-319
-335
-345
-345
-346
-343
-339
-345
-343
-328
-321
-316
-315
-304
-283
-273
-265
-256
-257
-253
-249
-259
-269
-279
-282
-290
-302
-318
-330
-326
-320
-321
-328
-336
-342
-338
-333
-332
-333
-327
-322
-328
-324
-308
-298
-288
-285
-295
-294
-286
-282
-294
-302
-290
-289
-304
-314
-309
-308
-313
-314
-302
-293
-281
-262
-239
-223
-206
-182
-162
-158
-149
-130
-110
-101
-91
-68
-52
-56
-47
-35
-32
-33
-31
-18
-12
-5
5
7
10
28
43
45
44
51
62
58
58
67
85
106
108
110
121
134
145
149
151
151
134
127
128
125
129
121
112
99
89
89
89
85
75
61
55
52
49
37
24
18
6
-8
-13
-17
-24
-24
-28
-37
-43
-54
-74
-88
-101
-117
-124
-127
-125
-121
-120
-132
-143
-131
-125
-124
-123
-126
-122
-125
-116
-104
-106
-102
-100
-102
-101
-92
-85
-72
-73
-76
-71
-44
-11
5
20
36
49
58
71
80
101
116
118
134
155
172
174
181
202
218
233
247
260
266
272
287
300
322
324
315
309
310
316
325
327
343
362
382
383
399
424
440
454
472
504
544
591
636
685
752
836
936
1032
1125
1224
1324
1441
1573
1718
1882
2046
2222
2440
2662
2841
2945
2967
2926
2813
2610
2338
2029
1718
1400
1089
768
440
114
-212
-552
-895
-1219
-1507
-1769
-2002
-2183
-2327
-2435
-2500
-2536
-2545
-2541
-2519
-2482
-2434
-2361
-2274
-2174
-2057
-1919
-1773
-1640
-1506
-1355
-1218
-1093
-974
-865
-760
-672
-581
-487
-378
-282
-197
-103
1
101
185
279
378
466
549
629
718
816
915
1013
1106
1202
1287
1362
1450
1550
1633
1698
1768
1831
1874
1898
1922
1951
1950
1927
1887
1846
1814
1766
1694
1607
1522
1438
1350
1258
1157
1062
974
889
807
718
637
558
474
405
339
270
206
147
101
49
-2
-35
-55
-54
-53
-55
-32
10
53
102
157
210
258
324
397
464
526
588
673
757
816
863
915
973
1020
1071
1130
1171
1212
1236
1249
1235
1200
1167
1119
1066
1005
929
872
829
774
711
651
616
567
504
458
418
383
347
318
286
251
223
188
132
79
21
-46
-107
-163
-233
-231
-323
-525
-525
-491
-571
-660
-697
-690
-676
-741
-801
-763
-721
-757
-799
-790
-768
-764
-809
-846
-866
-885
-921
-970
-1001
-1012
-1008
-1014
-1015
-999
-962
-941
-915
-883
-862
-837
-810
-784
-755
-741
-719
-675
-621
-586
-559
-517
-459
-419
-387
-361
-322
-265
-214
-173
-140
-95
-54
-31
-10
19
37
41
64
97
116
116
119
126
124
117
115
126
123
95
92
114
127
99
60
55
51
21
4
13
30
28
21
32
39
38
28
33
40
41
47
50
56
60
68
64
50
46
48
46
35
36
38
24
11
8
1
-1
0
1
-2
-10
-12
-18
-31
-37
-24
-12
-12
-6
7
1
1
18
35
35
35
49
59
40
22
26
29
36
27
21
25
23
14
0
-28
-44
-46
-44
-58
-73
-85
-98
-113
-116
-129
-159
-193
-209
-211
-221
-235
-246
-252
-262
-272
-288
-312
-330
-330
-333
-360
-375
-368
-359
-364
-373
-368
-364
-376
-396
-411
-417
-424
-434
-441
-436
-435
-449
-457
-460
-463
-451
-442
-438
-437
-423
-409
-400
-387
-375
-360
-346
-324
-295
-281
-276
-260
-259
-267
-263
-243
-216
-205
-199
-202
-192
-176
-171
-177
-181
-178
-178
-195
-191
-177
-184
-192
-193
-187
-187
-190
-190
-186
-187
-189
-190
-187
-190
-193
-187
-192
-211
-224
-223
-225
-231
-231
-222
-224
-237
-237
-231
-223
-208
-202
-194
-194
-200
-198
-192
-184
-197
-200
-175
-161
-160
-166
-169
-176
-187
-193
-194
-199
-202
-205
-202
-198
-192
-191
-185
-172
-165
-160
-152
-141
-149
-161
-161
-151
-154
-166
-169
-170
-173
-184
-187
-198
-207
-216
-221
-227
-245
-261
-273
-280
-304
-332
-338
-328
-332
-340
-350
-362
-367
-369
-358
-359
-362
-370
-374
-371
-368
-375
-383
-380
-383
-393
-398
-406
-414
-426
-433
-429
-414
-399
-398
-390
-377
-355
-333
-314
-303
-291
-279
-262
-244
-221
-198
-191
-177
-154
-125
-95
-83
-76
-72
-69
-69
-66
-54
-47
-29
-13
-15
-17
-17
-16
-24
-28
-33
-28
-19
-20
-20
-19
-22
-26
-22
-17
-21
-32
-46
-52
-48
-43
-46
-50
-49
-41
-33
-32
-28
-26
-23
-12
0
-9
-12
-6
-8
-20
-20
-12
-15
-15
-9
11
7
-15
-14
-2
9
16
47
77
87
87
98
123
145
164
175
177
185
194
199
204
226
258
277
289
300
310
319
329
337
328
298
280
272
266
261
246
237
226
223
216
191
159
134
132
128
122
115
120
118
113
109
92
96
114
118
114
125
137
149
153
148
144
139
141
154
174
180
185
205
221
232
235
248
259
269
267
270
283
292
283
256
249
255
259
257
253
257
255
238
236
233
234
239
249
265
275
273
261
263
263
256
241
239
240
235
233
225
226
233
225
237
228
198
174
161
163
136
108
95
83
67
53
46
48
48
39
32
23
16
15
0
-11
-13
1
1
-4
6
14
14
7
8
19
33
66
79
72
75
93
105
103
108
106
92
73
54
52
57
56
51
58
84
78
60
64
69
78
93
117
120
108
107
113
122
124
115
112
122
121
112
102
94
82
64
62
63
64
52
47
49
60
49
37
39
53
65
61
66
76
87
96
98
91
82
72
65
55
50
42
43
56
68
66
57
59
74
88
91
89
100
108
95
79
85
100
98
101
105
97
81
75
79
64
45
40
42
41
40
39
25
2
-10
3
8
5
-5
3
15
7
4
15
20
6
-12
-25
-36
-48
-59
-80
-103
-113
-112
-117
-132
-142
-145
-131
-127
-127
-130
-122
-91
-142
-179
-129
-98
-132
-185
-173
-127
-107
-116
-112
-77
-47
-52
-33
-7
-1
-11
-26
-38
-39
-44
-54
-62
-74
-68
-73
-75
-72
-59
-40
-31
-15
2
17
25
33
33
25
17
21
27
21
19
35
50
47
39
44
50
40
5
-8
9
14
-6
-21
-21
-4
-13
-27
-19
2
-4
-23
-30
-24
-24
37
54
26
-34
-49
-35
-46
-84
-105
-94
-87
-92
-74
-61
-47
-45
-57
-59
-49
-46
-40
-13
14
0
-8
17
72
101
90
89
105
102
86
69
70
86
93
93
93
94
89
82
81
73
57
54
52
49
45
41
27
19
19
4
-18
-32
-35
-41
-64
-77
-81
-80
-107
-135
-132
-116
-109
-105
-97
-93
-93
-88
-74
-65
-58
-46
-40
-40
-37
-25
-7
8
25
36
54
68
79
96
112
133
160
173
174
169
181
192
180
175
199
203
188
169
180
195
179
157
155
166
167
157
150
153
154
149
135
152
174
160
147
139
149
148
153
153
144
129
133
143
150
146
135
132
132
113
86
75
71
59
35
25
22
18
3
-8
-14
-13
-12
-17
-22
-30
-37
-46
-42
-31
-27
-30
-28
-25
-22
-19
-15
-9
-10
-5
-1
-7
-8
-9
-4
-1
-4
-4
-4
-1
-7
-8
-4
-1
1
6
11
6
-6
-13
-11
-21
-28
-26
-33
-44
-45
-47
-54
-67
-80
-87
-82
-77
-66
-49
-38
-30
-21
-7
4
22
46
77
111
135
153
164
184
214
237
246
262
280
285
281
276
278
272
269
269
268
251
234
228
215
193
176
178
184
179
169
162
156
158
171
178
169
164
172
184
182
181
187
201
207
207
206
203
198
196
196
181
166
151
141
122
91
66
45
27
2
-21
-36
-50
-71
-86
-99
-106
-111
-120
-125
-119
-125
-132
-130
-126
-120
-128
-130
-121
-124
-132
-137
-136
-134
-140
-144
-137
-122
-107
-101
-90
-88
-93
-87
-67
-61
-64
-66
-67
-82
-118
-133
-137
-149
-164
-170
-174
-183
-188
-199
-220
-227
-217
-216
-233
-246
-250
-263
-274
-274
-276
-281
-279
-280
-273
-266
-275
-290
-298
-292
-287
-290
-289
-282
-272
-268
-273
-263
-243
-228
-209
-180
-150
-126
-109
-87
-60
-42
-28
-14
-7
7
26
37
46
47
49
51
70
100
120
128
131
143
155
154
154
163
173
190
198
201
202
198
205
208
201
186
178
180
172
156
148
157
158
150
152
152
147
144
145
146
151
162
166
163
154
152
153
160
162
157
155
161
168
166
154
138
137
142
146
153
163
170
170
171
181
178
156
148
147
145
144
139
140
134
132
130
153
185
171
166
154
166
176
176
178
191
198
205
192
191
203
203
193
181
183
182
180
181
176
167
173
184
177
162
151
141
122
109
115
111
101
96
91
84
85
84
81
71
54
42
29
19
12
7
3
-8
-24
-28
-32
-35
-42
-44
-47
-50
-56
-64
-76
-82
-83
-89
-89
-91
-102
-117
-126
-131
-130
-121
-112
-109
-99
-80
-65
-54
-41
-22
-5
3
9
16
15
10
17
26
22
3
-11
-15
-9
-10
-35
-57
-59
-60
-67
-77
-76
-77
-87
-84
-83
-84
-82
-82
-87
-98
-108
-106
-104
-118
-137
-141
-148
-162
-177
-192
-216
-236
-243
-242
-249
-262
-261
-247
-243
-254
-261
-256
-239
-223
-219
-217
-216
-227
-228
-223
-209
-205
-197
-184
-168
-161
-173
-184
-165
-134
-122
-131
-116
-98
-98
-103
-99
-97
-107
-114
-130
-136
-140
-146
-155
-161
-165
-163
-171
-193
-192
-196
-201
-206
-201
-200
-204
-210
-208
-205
-204
-201
-202
-201
-208
-211
-208
-210
-223
-237
-251
-261
-270
-287
-282
-276
-268
-265
-265
-261
-250
-241
-232
-220
-207
-194
-186
-187
-184
-179
-174
-167
-155
-147
-146
-141
-130
-120
-113
-108
-97
-86
-85
-74
-62
-47
-32
-23
-19
-11
4
10
13
19
21
21
25
34
39
31
25
18
13
11
11
2
-1
3
1
-2
-13
-20
-25
-21
-16
-18
-16
-19
-22
-30
-37
-50
-54
-58
-64
-64
-77
-84
-80
-77
-77
-83
-89
-81
-78
-86
-89
-94
-102
-112
-113
-116
-125
-121
-118
-113
-122
-130
-122
-115
-116
-116
-116
-112
-117
-124
-120
-119
-125
-133
-145
-151
-161
-172
-182
-194
-210
-228
-237
-245
-259
-280
-303
-308
-306
-321
-339
-344
-343
-350
-361
-373
-372
-374
-381
-397
-408
-412
-424
-434
-431
-422
-422
-430
-435
-420
-405
-396
-389
-376
-354
-331
-319
-299
-258
-229
-211
-185
-140
-105
-95
-85
-59
-15
6
15
26
48
60
52
50
60
59
46
48
62
45
8
-11
-25
-48
-88
-119
-143
-165
-191
-212
-218
-224
-236
-238
-222
-208
-209
-206
-194
-176
-172
-171
-157
-135
-123
-116
-98
-81
-81
-98
-113
-121
-139
-175
-202
-227
-256
-289
-316
-329
-356
-385
-422
-448
-471
-506
-537
-555
-573
-603
-617
-623
-626
-638
-647
-650
-649
-646
-665
-681
-689
-692
-693
-701
-703
-703
-705
-711
-726
-742
-751
-747
-725
-689
-643
-565
-469
-369
-261
-136
17
182
353
515
687
872
1041
1186
1326
1462
1588
1696
1798
1903
1987
2062
2145
2238
2322
2394
2461
2538
2609
2662
2696
2713
2723
2718
2688
2639
2564
2474
2364
2225
2060
1889
1702
1499
1286
1062
851
631
402
177
-29
-213
-395
-562
-694
-801
-898
-979
-1037
-1072
-1090
-1090
-1074
-1059
-1056
-1045
-1031
-1013
-1000
-991
-992
-1007
-1025
-1039
-1043
-1055
-1067
-1070
-1069
-1078
-1091
-1097
-1099
-1095
-1088
-1079
-1074
-1057
-1033
-1007
-976
-945
-891
-823
-757
-692
-619
-544
-470
-405
-321
-247
-199
-147
-88
-27
15
29
60
114
179
233
283
359
456
526
575
629
694
755
803
850
897
940
981
1008
1021
1012
994
986
1003
1041
1080
1128
1185
1232
1252
1261
1258
1229
1170
1078
966
852
737
624
524
458
415
391
401
447
512
579
659
745
812
865
904
918
895
855
790
699
584
454
320
184
60
-45
-140
-228
-311
-373
-433
-487
-528
-567
-591
-607
-616
-617
-619
-626
-634
-647
-670
-696
-727
-766
-807
-854
-893
-914
-927
-937
-936
-933
-930
-912
-881
-850
-807
-753
-697
-627
-555
-479
-406
-329
-239
-152
-78
-8
74
165
233
296
359
419
464
485
504
513
509
497
483
460
434
409
392
382
371
362
366
385
403
425
469
522
575
631
693
760
830
899
973
1043
1101
1155
1196
1227
1243
1243
1244
1236
1208
1167
1119
1064
996
918
848
775
699
621
552
474
389
315
255
201
156
124
99
67
28
-1
-15
-28
-38
-49
-62
-70
-79
-81
-85
-92
-101
-109
-109
-116
-125
-135
-137
-128
-110
-96
-88
-64
-30
6
29
49
77
103
115
117
127
136
147
154
158
164
176
188
190
200
215
230
241
248
261
274
282
298
309
306
293
275
270
272
278
280
278
283
286
284
272
267
267
259
251
250
237
219
201
190
184
170
158
156
145
128
122
126
122
97
74
69
60
38
14
-3
-25
-50
-69
-84
-106
-129
-150
-165
-175
-189
-200
-203
-210
-220
-232
-240
-241
-245
-252
-258
-262
-258
-258
-260
-254
-256
-256
-254
-241
-226
-229
-218
-196
-181
-174
-169
-163
-139
-128
-129
-124
-100
-77
-70
-74
-72
-53
-50
-52
-49
-39
-40
-58
-56
-53
-54
-61
-66
-72
-88
-100
-97
-95
-112
-130
-131
-125
-124
-131
-137
-142
-147
-150
-156
-164
-173
-173
-168
-168
-182
-187
-182
-181
-193
-205
-212
-217
-221
-229
-238
-249
-253
-271
-289
-298
-305
-292
-286
-276
-283
-304
-282
-258
-267
-277
-273
-274
-290
-296
-279
-272
-276
-272
-266
-263
-261
-254
-234
-220
-210
-196
-181
-173
-165
-167
-166
-169
-173
-166
-162
-159
-146
-139
-136
-139
-127
-108
-98
-95
-88
-77
-80
-87
-86
-85
-89
-87
-79
-72
-71
-58
-41
-29
-35
-50
-51
-53
-75
-99
-116
-131
-141
-137
-137
-148
-158
-160
-156
-155
-156
-161
-163
-152
-145
-149
-152
-147
-141
-143
-154
-161
-155
-144
-134
-124
-113
-109
-98
-88
-72
-56
-44
-32
-32
-31
-25
-21
-20
-29
-40
-53
-70
-81
-76
-89
-111
-124
-119
-105
-113
-139
-161
-170
-179
-193
-208
-211
-216
-223
-232
-244
-250
-254
-265
-279
-293
-301
-313
-323
-330
-335
-341
-335
-328
-330
-339
-349
-344
-340
-341
-332
-320
-317
-316
-320
-317
-307
-296
-296
-298
-289
-276
-270
-262
-260
-260
-258
-254
-242
-228
-217
-215
-219
-213
-199
-194
-206
-209
-187
-161
-168
-174
-162
-153
-161
-174
-171
-157
-151
-152
-137
-127
-126
-123
-117
-110
-109
-109
-109
-107
-112
-121
-127
-128
-130
-137
-134
-127
-116
-107
-105
-107
-98
-82
-79
-75
-69
-56
-27
1
20
30
40
55
66
63
62
68
81
87
101
111
116
123
131
137
136
133
134
136
135
142
142
145
109
84
99
104
124
129
144
141
136
132
133
128
113
101
97
94
85
75
68
58
45
46
43
36
23
9
5
4
-2
-14
-33
-49
-64
-78
-79
-86
-93
-101
-105
-103
-112
-130
-137
-143
-146
-148
-151
-153
-165
-175
-172
-178
-192
-209
-192
-175
-187
-205
-197
-164
-153
-151
-143
-121
-107
-98
-91
-71
-55
-41
-51
-69
-28
8
15
17
40
57
55
42
32
27
14
6
-1
0
1
-9
-28
-42
-51
-50
-54
-64
-60
-47
-34
-36
-44
-37
-22
-15
-22
-24
-6
9
22
42
55
71
86
96
103
114
118
118
122
133
141
138
147
157
155
156
155
161
157
144
140
136
140
135
122
116
122
125
113
100
100
106
102
98
93
89
96
102
105
114
125
127
125
121
116
80
45
78
99
85
54
39
23
2
-16
-27
-29
-42
-57
-72
-85
-98
-106
-113
-133
-157
-170
-175
-183
-193
-201
-210
-212
-212
-219
-228
-225
-210
-215
-211
-193
-176
-180
-184
-179
-172
-167
-165
-156
-145
-139
-134
-119
-98
-79
-62
-36
-12
6
23
45
70
88
99
111
121
133
141
143
136
117
115
127
136
131
127
133
142
133
106
91
78
65
46
36
29
16
12
6
-3
-11
-28
-36
-38
-41
-54
-68
-70
-63
-62
-57
-60
-68
-64
-64
-66
-61
-51
-40
-33
-31
-28
-25
-28
-28
-30
-35
-41
-44
-44
-45
-47
-49
-43
-32
-21
-7
4
13
29
42
50
66
82
92
104
124
152
173
184
196
209
216
218
223
230
221
227
238
244
244
242
245
245
240
232
225
221
217
212
210
212
212
206
203
202
194
192
194
193
192
198
197
192
189
189
189
198
207
216
211
209
220
229
228
225
220
212
208
202
191
181
180
172
169
173
178
183
180
174
169
163
156
153
160
169
173
168
161
162
174
184
182
182
188
195
195
193
196
195
195
194
191
188
183
172
163
151
141
136
128
114
104
89
77
59
35
12
-6
-12
-14
-19
-37
-66
-80
-90
-102
-104
-95
-90
-75
-72
-75
-65
-50
-41
-37
-26
-59
-17
35
38
9
-9
16
49
64
69
84
97
104
112
129
133
138
151
153
143
141
155
159
152
148
97
97
145
164
154
152
184
195
180
158
149
157
158
158
155
142
133
130
133
126
107
96
97
90
58
55
55
30
26
25
19
-7
-26
-45
-61
-57
-71
-85
-84
-93
-112
-132
-134
-131
-140
-147
-141
-137
-129
-138
-157
-174
-157
-124
-109
-117
-99
-58
-31
-15
22
67
98
143
194
209
281
386
507
593
695
800
906
1004
1114
1251
1433
1660
1933
2233
2475
2606
2612
2509
2310
2025
1681
1330
1015
742
512
282
31
-252
-595
-969
-1358
-1732
-2091
-2403
-2644
-2839
-2985
-3067
-3121
-3159
-3193
-3199
-3166
-3151
-3098
-3017
-2920
-2836
-2737
-2618
-2495
-2389
-2289
-2188
-2091
-1999
-1924
-1840
-1744
-1645
-1544
-1445
-1338
-1227
-1114
-1003
-879
-743
-597
-444
-291
-129
36
203
369
538
708
874
1029
1171
1297
1426
1551
1661
1753
1825
1887
1929
1956
1963
1959
1947
1916
1863
1790
1704
1601
1490
1376
1265
1147
1017
884
758
627
487
345
223
124
23
-74
-171
-257
-330
-399
-456
-490
-515
-527
-534
-547
-547
-524
-492
-461
-427
-376
-329
-282
-232
-186
-136
-89
-37
16
57
90
118
145
174
191
197
204
207
210
209
204
200
191
186
180
165
160
162
162
160
150
145
141
137
145
142
148
162
175
178
183
197
211
214
213
214
221
224
221
220
227
227
223
229
233
241
244
252
265
274
286
296
295
302
318
329
329
329
336
341
335
326
321
325
325
336
354
364
369
370
393
421
426
435
467
505
534
564
608
648
670
697
749
789
811
822
844
866
870
854
815
776
690
596
565
553
539
514
506
504
485
465
446
433
406
356
300
227
139
54
-22
-102
-194
-282
-359
-444
-519
-592
-662
-725
-781
-825
-872
-908
-923
-938
-965
-998
-993
-988
-991
-998
-989
-973
-965
-962
-944
-929
-926
-918
-900
-875
-845
-816
-790
-763
-740
-730
-725
-720
-700
-683
-655
-621
-587
-558
-542
-526
-506
-479
-463
-451
-442
-425
-405
-415
-404
-394
-376
-337
-292
-246
-233
-216
-189
-156
-136
-134
-129
-133
-126
-76
-50
-51
-55
-35
-21
-24
-26
-27
-22
-23
-19
-17
-17
-17
-16
-16
-19
-25
-35
-38
-38
-27
-15
-1
8
18
27
33
32
28
28
27
28
28
28
23
20
15
13
20
28
31
26
20
21
21
19
20
27
38
32
14
5
4
-4
-16
-29
-29
-32
-49
-65
-68
-67
-76
-86
-97
-98
-113
-121
-126
-131
-136
-147
-154
-165
-175
-179
-181
-185
-187
-184
-175
-173
-178
-180
-179
-193
-204
-208
-211
-216
-220
-218
-211
-207
-209
-212
-205
-196
-191
-189
-184
-176
-168
-163
-159
-161
-161
-164
-161
-159
-158
-148
-141
-136
-135
-142
-150
-144
-132
-131
-137
-147
-149
-148
-150
-155
-165
-168
-173
-179
-173
-165
-166
-168
-169
-175
-178
-178
-171
-167
-171
-168
-175
-185
-188
-190
-187
-190
-186
-173
-173
-176
-167
-165
-167
-165
-161
-156
-154
-147
-134
-123
-113
-99
-75
-50
-34
-13
16
42
66
90
118
142
152
167
189
195
203
213
232
244
243
233
224
218
218
204
202
206
207
198
190
193
188
164
148
138
122
110
102
95
90
82
68
58
45
27
8
5
12
24
27
20
2
4
13
23
30
34
45
51
55
61
63
57
67
72
68
67
73
74
60
58
69
75
72
68
70
77
74
71
78
85
79
68
67
73
70
70
86
90
88
92
99
104
106
97
73
58
54
38
19
-1
-12
-25
-47
-64
-81
-106
-125
-135
-145
-153
-167
-176
-182
-187
-189
-192
-196
-195
-193
-187
-187
-192
-190
-186
-191
-192
-186
-175
-153
-132
-134
-141
-159
-158
-149
-131
-108
-110
-119
-119
-119
-125
-113
-81
-67
-69
-49
-26
-22
-19
-1
19
33
48
64
73
68
63
68
82
106
122
135
142
146
145
150
161
166
154
146
135
120
108
100
92
75
51
43
37
26
20
24
31
25
14
17
19
19
15
10
12
5
-14
-24
-19
-12
-5
1
5
5
12
11
-4
-26
-36
-27
-24
-26
-19
-9
-10
-13
-7
0
8
16
26
41
50
47
56
81
100
110
125
160
168
153
153
163
175
177
172
176
189
188
182
179
193
198
205
225
238
226
204
200
209
208
205
216
219
217
207
202
212
210
196
185
194
198
197
197
203
198
192
197
207
215
214
208
211
221
231
236
235
238
247
248
243
248
246
236
225
227
243
260
281
295
305
314
320
326
330
336
336
337
347
356
364
364
350
336
342
347
337
320
310
307
291
270
265
261
249
232
220
206
192
180
162
144
141
147
138
133
123
109
98
89
75
53
34
24
9
-2
-5
-20
-38
-42
-43
-49
-60
-65
-64
-63
-60
-52
-47
-47
-51
-60
-59
-43
-38
-34
-23
-10
-2
8
25
42
50
63
83
99
111
121
139
149
165
182
173
162
171
183
193
191
190
192
191
181
164
149
141
133
126
111
94
75
65
59
51
37
30
32
25
19
24
27
12
-7
-14
-19
-20
-21
-24
-22
-17
-26
-27
-17
-12
-15
-17
-7
3
10
13
11
9
16
24
25
25
35
47
55
54
55
64
76
91
100
113
118
119
123
131
135
138
145
149
141
125
117
105
89
78
69
53
33
22
3
-19
-26
-27
-35
-46
-61
-79
-104
-121
-137
-155
-172
-177
-186
-199
-203
-211
-216
-225
-248
-268
-281
-281
-280
-289
-300
-322
-341
-348
-352
-360
-364
-370
-392
-401
-396
-393
-404
-408
-395
-376
-376
-376
-365
-354
-350
-341
-338
-338
-324
-308
-290
-269
-253
-238
-216
-202
-192
-172
-142
-116
-107
-88
-70
-67
-69
-58
-47
-59
-73
-79
-75
-80
-89
-104
-109
-129
-149
-168
-182
-193
-199
-188
-179
-175
-168
-152
-137
-133
-131
-119
-110
-104
-104
-92
-86
-93
-97
-103
-104
-86
-66
-49
-34
-11
4
2
2
14
30
47
45
37
38
52
59
63
62
64
66
70
89
122
157
165
164
168
177
183
197
220
233
250
269
287
304
326
352
368
372
369
377
384
371
355
349
345
341
338
327
319
319
317
308
301
307
316
313
308
307
302
295
293
288
284
280
290
304
287
273
261
256
252
238
232
243
246
241
239
235
224
216
222
225
211
201
204
207
199
188
181
179
175
182
195
201
192
180
185
188
188
186
184
183
175
164
158
151
141
129
124
113
98
86
79
70
52
34
7
-20
-34
-44
-58
-83
-101
-106
-117
-125
-134
-145
-152
-164
-172
-174
-182
-195
-207
-210
-212
-213
-213
-211
-219
-228
-227
-229
-229
-224
-226
-236
-244
-244
-242
-252
-258
-258
-264
-268
-271
-276
-282
-282
-279
-279
-272
-263
-257
-250
-247
-251
-250
-236
-215
-202
-190
-180
-165
-152
-143
-139
-132
-114
-104
-102
-103
-95
-94
-111
-121
-116
-113
-116
-121
-124
-125
-127
-128
-130
-130
-128
-123
-119
-108
-108
-106
-99
-94
-90
-91
-83
-79
-74
-72
-68
-58
-43
-24
-17
-9
-1
-1
-1
3
6
6
-8
-21
-35
-52
-67
-82
-89
-86
-82
-85
-88
-79
-63
-53
-52
-47
-34
-26
-7
16
46
61
69
76
78
76
74
75
78
81
82
73
56
34
15
3
-6
-17
-22
-30
-45
-61
-77
-91
-94
-93
-93
-89
-93
-101
-105
-112
-119
-130
-144
-148
-139
-132
-133
-136
-145
-159
-158
-150
-150
-153
-139
-104
-98
-119
-112
-82
-65
-69
-61
-38
-19
-17
-15
6
24
30
39
66
91
109
136
166
186
197
220
243
272
298
319
326
332
348
359
369
384
395
398
392
393
386
380
381
386
382
381
374
380
389
371
361
356
357
355
358
361
362
356
355
358
358
353
345
343
341
325
320
316
297
281
278
269
269
264
260
258
259
254
244
233
228
221
207
205
213
218
220
222
220
219
224
236
239
237
229
227
227
219
206
195
191
183
174
159
144
121
105
102
93
81
76
77
67
45
40
45
38
30
23
22
29
32
27
22
28
42
40
35
32
26
21
10
1
-8
-18
-28
-38
-49
-54
-76
-103
-113
-119
-120
-119
-124
-125
-128
-133
-142
-149
-153
-153
-157
-161
-160
-162
-164
-156
-147
-144
-138
-126
-119
-120
-113
-109
-106
-103
-85
-65
-53
-44
-31
-23
-19
-18
-17
-14
-12
-10
-10
-6
-12
-29
-44
-50
-61
-83
-97
-110
-125
-136
-145
-152
-164
-167
-161
-168
-181
-184
-183
-188
-193
-202
-207
-202
-196
-198
-206
-204
-198
-200
-195
-195
-190
-178
-169
-167
-169
-166
-163
-168
-169
-167
-172
-187
-192
-194
-209
-224
-238
-238
-232
-222
-222
-220
-217
-223
-226
-223
-211
-201
-194
-185
-176
-174
-177
-178
-183
-179
-177
-181
-184
-183
-183
-193
-204
-209
-208
-203
-203
-211
-221
-217
-213
-217
-223
-220
-209
-205
-205
-199
-201
-191
-186
-189
-190
-185
-175
-181
-188
-192
-195
-202
-206
-206
-207
-210
-217
-209
-204
-207
-211
-217
-216
-218
-225
-233
-240
-242
-242
-240
-244
-245
-234
-221
-227
-238
-242
-241
-231
-210
-187
-191
-203
-202
-196
-193
-193
-193
-187
-178
-175
-177
-177
-173
-167
-171
-154
-105
-91
-105
-124
-114
-89
-77
-79
-75
-59
-46
-39
-31
-14
-7
-3
1
-2
-2
-6
-16
-14
-11
-7
2
-4
-8
-1
5
-1
-2
10
27
32
32
32
28
22
14
9
10
12
8
4
6
11
8
8
19
30
42
41
30
29
38
45
52
64
68
63
54
46
32
24
16
2
-18
-34
-52
-73
-95
-116
-130
-145
-162
-183
-197
-215
-235
-255
-264
-276
-290
-300
-313
-322
-335
-361
-385
-401
-410
-411
-419
-423
-420
-427
-422
-401
-351
-291
-227
-121
-6
110
246
402
574
753
940
1135
1336
1527
1699
1870
2030
2177
2304
2413
2514
2621
2720
2798
2865
2923
2964
2999
3018
3024
3027
3004
2963
2904
2833
2750
2650
2529
2405
2271
2119
1947
1760
1577
1382
1189
1006
817
619
420
243
76
-102
-263
-396
-515
-630
-735
-832
-909
-981
-1053
-1112
-1160
-1200
-1242
-1271
-1284
-1298
-1317
-1344
-1376
-1395
-1406
-1426
-1446
-1455
-1469
-1494
-1528
-1561
-1582
-1606
-1624
-1624
-1611
-1588
-1555
-1524
-1491
-1456
-1416
-1354
-1266
-1163
-1071
-989
-861
-731
-621
-529
-440
-348
-260
-167
-69
35
158
291
443
595
728
849
961
1053
1106
1127
1141
1148
1131
1093
1053
1015
965
893
823
763
700
634
581
547
533
550
591
646
717
789
857
925
991
1029
1040
1032
990
924
844
748
642
535
421
309
190
78
-24
-113
-188
-265
-324
-370
-416
-467
-510
-543
-563
-572
-573
-564
-562
-576
-565
-553
-545
-565
-624
-651
-659
-684
-724
-770
-824
-904
-990
-1063
-1132
-1210
-1281
-1335
-1377
-1419
-1442
-1449
-1445
-1421
-1377
-1310
-1231
-1158
-1084
-994
-886
-784
-698
-604
-493
-412
-351
-294
-250
-229
-224
-207
-188
-179
-177
-182
-177
-157
-150
-154
-140
-107
-78
-53
-15
47
104
146
202
268
326
376
425
477
524
564
603
631
642
644
681
719
724
697
668
637
609
580
537
480
413
342
271
195
127
72
26
-32
-94
-125
-159
-208
-242
-265
-281
-293
-308
-319
-316
-304
-299
-306
-304
-283
-280
-294
-304
-321
-337
-293
-259
-263
-281
-281
-269
-265
-250
-240
-229
-204
-177
-155
-139
-119
-101
-67
-14
33
59
86
119
153
179
190
205
220
256
282
294
304
341
361
368
362
355
376
395
417
428
443
460
476
487
489
498
518
508
506
522
536
531
534
526
527
543
542
546
550
521
513
539
548
556
546
555
561
559
554
543
531
541
522
496
500
485
458
433
427
441
413
344
357
368
367
332
366
428
432
427
430
442
417
408
407
391
398
440
465
472
496
538
590
628
677
691
655
666
698
696
661
621
599
569
497
431
431
413
391
371
370
316
234
242
288
210
227
278
293
222
218
271
288
256
274
309
291
311
317
346
357
381
430
453
481
437
427
434
449
442
413
397
356
325
270
233
225
212
163
108
41
-25
-68
-137
-194
-213
-326
-511
-470
-364
-395
-605
-586
-484
-462
-485
-521
-462
-415
-379
-406
-372
-324
-319
-363
-348
-325
-338
-347
-317
-325
-335
-273
-254
-261
-311
-354
-340
-335
-309
-345
-458
-471
-504
-510
-540
-550
-544
-611
-648
-695
-687
-695
-750
-808
-832
-867
-913
-942
-963
-986
-1035
-991
-987
-991
-976
-979
-969
-986
-987
-996
-989
-983
-1033
-1009
-1111
-1079
-952
-949
-981
-999
-947
-975
-1002
-1009
-1005
-1069
-1101
-1040
-1011
-973
-979
-975
-961
-955
-967
-1006
-993
-993
-992
-984
-969
-950
-943
-920
-908
-893
-889
-887
-885
-883
-881
-885
-891
-890
-866
-850
-913
-963
-915
-866
-839
-868
-875
-867
-832
-807
-791
-783
-784
-786
-781
-794
-800
-793
-782
-786
-793
-786
-761
-733
-709
-696
-678
-649
-627
-618
-599
-576
-550
-526
-502
-470
-447
-423
-402
-384
-369
-336
-299
-273
-253
-237
-220
-200
-180
-146
-112
-93
-77
-65
-52
-37
-22
0
25
47
64
87
119
140
162
212
258
287
322
361
402
422
437
456
465
463
457
453
447
433
413
398
386
370
346
325
310
296
276
271
261
248
246
229
203
196
202
201
194
195
206
205
204
219
231
235
232
234
246
256
262
270
283
294
295
286
282
275
274
276
282
286
278
269
273
266
243
229
216
209
198
182
173
166
159
151
144
143
134
121
114
120
128
125
128
134
136
142
153
163
179
196
199
194
188
185
182
178
179
177
173
166
157
152
154
150
144
150
145
127
118
114
104
88
73
72
53
36
21
12
-3
-15
-26
-34
-28
-14
-10
-7
-4
-2
3
15
29
39
40
51
61
58
55
58
61
65
64
62
60
62
63
61
58
68
74
77
78
89
95
96
106
113
116
126
138
142
151
154
156
153
140
130
128
133
141
144
149
152
161
174
177
176
191
210
210
215
234
253
259
257
271
293
304
312
336
356
359
363
373
386
400
410
412
423
437
439
444
473
495
494
496
510
518
511
507
517
524
521
512
503
503
499
484
458
455
464
463
456
445
436
423
407
396
387
373
368
366
358
350
340
327
305
283
265
240
223
224
211
193
172
157
137
114
73
15
45
59
48
18
4
-12
-40
-71
-93
-102
-126
-154
-184
-200
-219
-245
-260
-255
-244
-242
-234
-227
-215
-216
-201
-168
-142
-117
-98
-86
-84
-79
-68
-51
-27
-13
-27
-34
-39
-45
-79
-80
-57
-52
-57
-72
-84
-85
-83
-104
-125
-137
-141
-163
-232
-373
-328
-214
-156
-165
-172
-173
-185
-189
-213
-228
-241
-243
-239
-256
-256
-241
-228
-230
-232
-226
-230
-230
-235
-259
-260
-251
-239
-244
-244
-299
-371
-294
-222
-174
-173
-161
-142
-129
-121
-93
-61
-35
-14
-2
7
-46
-80
-51
-26
-12
-31
-18
-23
-65
-61
-52
-18
-17
-24
-9
14
8
-6
-79
-38
36
41
27
27
50
52
48
15
-78
-37
60
89
66
50
61
78
77
54
43
52
52
43
48
41
24
27
37
50
42
47
43
30
51
44
33
13
-2
0
3
13
31
41
47
47
53
63
78
82
105
62
77
143
159
136
128
136
157
165
124
130
154
144
120
108
116
120
60
16
63
95
99
83
57
16
19
29
16
-9
-15
-38
-67
-40
-59
-73
-61
-56
-68
-99
-137
-150
-144
-128
-134
-181
-213
-129
-102
-106
-178
-193
-128
-88
-42
-139
-170
-58
13
-40
-115
-56
45
66
56
33
50
62
60
33
21
57
58
38
27
30
-33
-31
0
-5
-70
-69
-47
-30
-49
-98
-93
-56
-55
-87
-97
-110
-132
-110
-68
-42
-39
-54
-42
-43
-52
-66
-73
-103
-83
-58
-51
-75
-74
-73
-128
-124
-142
-101
-96
-98
-111
-114
-95
-73
-59
-62
-60
-78
-87
-97
-86
-43
-22
-2
-21
-21
-42
-44
-18
23
48
64
83
95
119
145
159
175
180
171
166
176
198
217
228
236
238
245
244
242
238
210
229
254
264
250
234
230
219
187
176
181
174
147
138
139
145
133
129
145
152
166
188
214
239
259
258
268
316
372
416
447
533
611
695
756
833
959
1094
1214
1325
1480
1587
1722
1849
1938
1927
1870
1737
1527
1219
1028
1022
841
552
297
93
-180
-519
-865
-1184
-1614
-1889
-2075
-2279
-2462
-2538
-2610
-2634
-2595
-2594
-2574
-2582
-2585
-2526
-2438
-2356
-2248
-2115
-1961
-1802
-1634
-1479
-1342
-1224
-1122
-1030
-974
-906
-897
-828
-886
-627
-841
-993
-551
-572
-804
-609
-440
-381
-340
-283
-171
-43
101
187
276
455
613
704
810
929
1046
1126
1172
1249
1299
1317
1315
1280
1238
1208
1155
1061
959
858
753
630
510
399
293
204
110
-2
-96
-176
-258
-337
-398
-448
-493
-535
-560
-573
-571
-559
-539
-511
-476
-435
-403
-358
-299
-240
-193
-140
-87
-45
5
47
84
117
147
169
184
210
225
235
250
260
250
244
249
252
265
269
282
275
266
272
278
272
281
306
323
336
341
355
371
387
400
414
435
470
505
539
566
601
646
690
740
784
826
860
895
927
944
938
943
939
905
850
791
747
704
660
632
612
598
591
588
582
566
553
538
500
458
422
370
302
234
176
119
54
-15
-77
-127
-172
-222
-280
-338
-384
-418
-440
-464
-473
-475
-483
-486
-482
-471
-462
-458
-453
-435
-422
-422
-416
-416
-421
-424
-422
-412
-401
-387
-365
-340
-321
-314
-296
-275
-257
-238
-212
-190
-171
-158
-138
-110
-82
-55
-20
16
38
60
85
116
138
160
187
217
243
269
292
311
330
344
347
361
373
377
378
382
403
428
444
441
442
455
464
459
460
462
461
468
477
483
488
493
500
506
505
503
500
496
512
529
532
525
516
512
500
492
495
494
506
518
509
511
508
501
514
543
552
538
516
485
467
453
464
441
407
378
366
341
289
248
215
177
123
88
56
20
-31
-83
-114
-141
-167
-201
-233
-250
-270
-294
-311
-328
-345
-365
-382
-407
-442
-464
-489
-514
-543
-550
-568
-579
-581
-590
-599
-622
-626
-627
-628
-639
-657
-655
-641
-630
-620
-615
-619
-620
-613
-605
-613
-620
-606
-586
-587
-590
-587
-583
-567
-552
-531
-528
-532
-513
-501
-493
-491
-473
-460
-451
-450
-445
-441
-435
-427
-416
-400
-394
-396
-390
-385
-379
-380
-380
-392
-405
-402
-375
-356
-353
-354
-347
-340
-351
-364
-369
-357
-358
-367
-378
-393
-416
-439
-449
-455
-449
-449
-440
-424
-405
-376
-336
-304
-272
-255
-241
-214
-181
-157
-136
-109
-87
-66
-46
-31
-25
-21
-17
-17
1
4
0
-13
-17
-9
-18
-31
-38
-39
-47
-56
-62
-76
-89
-94
-109
-125
-125
-132
-137
-140
-148
-159
-164
-157
-162
-168
-171
-168
-165
-160
-152
-154
-148
-144
-140
-141
-144
-139
-135
-119
-107
-95
-103
-105
-107
-115
-109
-102
-83
-71
-68
-69
-54
-35
-27
-22
-2
14
29
42
52
60
66
74
93
111
123
133
142
159
177
195
213
226
243
256
264
275
292
303
313
318
327
335
331
324
309
296
290
289
284
279
270
269
260
249
243
237
242
244
233
224
209
197
192
188
173
155
148
162
171
172
163
152
159
173
177
195
193
206
213
218
240
248
252
255
279
299
315
333
350
374
389
406
425
436
444
450
462
468
467
460
453
447
448
440
436
429
425
429
422
410
409
418
414
398
390
397
393
389
380
373
366
351
337
325
322
322
314
304
298
288
273
254
235
227
215
192
172
162
165
168
154
136
127
127
126
108
97
131
123
73
41
52
47
9
-21
-24
-15
-22
-35
-41
-47
-56
-68
-73
-71
-65
-67
-66
-64
-70
-71
-72
-66
-61
-54
-44
-52
-73
-78
-78
-87
-95
-97
-103
-116
-126
-140
-159
-176
-190
-204
-212
-221
-231
-242
-252
-253
-249
-254
-248
-232
-228
-228
-231
-233
-231
-225
-224
-228
-234
-238
-247
-249
-249
-261
-264
-256
-257
-254
-247
-239
-243
-251
-240
-231
-234
-231
-227
-220
-226
-233
-235
-235
-234
-238
-237
-224
-204
-190
-182
-180
-174
-173
-163
-150
-141
-134
-121
-109
-104
-103
-106
-100
-90
-91
-106
-116
-118
-119
-133
-136
-132
-144
-163
-177
-174
-164
-176
-184
-184
-184
-182
-181
-186
-185
-182
-178
-170
-165
-169
-174
-174
-167
-160
-150
-149
-150
-136
-121
-118
-108
-95
-83
-74
-63
-53
-44
-31
-13
0
11
22
33
35
48
72
97
120
140
162
188
206
215
226
249
274
292
305
322
342
358
353
345
343
348
355
360
355
344
331
323
307
297
290
283
274
268
253
235
221
217
216
208
210
214
221
225
224
219
216
205
197
193
193
191
183
184
177
166
173
182
182
186
190
193
183
176
175
168
163
169
175
175
164
157
162
165
164
161
160
159
148
135
130
129
131
129
133
137
134
130
128
121
110
96
77
66
66
52
38
33
26
29
-2
-32
-43
-49
-57
-69
-58
-54
-92
-126
-151
-159
-156
-163
-182
-193
-185
-176
-195
-224
-239
-243
-244
-244
-241
-206
-187
-201
-200
-192
-186
-189
-179
-163
-148
-136
-131
-130
-111
-92
-92
-101
-91
-68
-55
-50
-46
-45
-39
-26
-15
-4
16
38
42
42
44
51
56
69
83
79
78
87
97
111
112
106
99
101
108
99
90
90
88
90
87
75
61
59
63
50
37
22
29
12
-3
-22
-9
23
27
10
9
20
24
25
34
38
27
10
7
13
19
19
25
35
41
48
55
59
53
53
53
52
45
44
20
7
2
19
40
42
45
41
52
49
67
76
79
69
72
99
88
52
46
65
85
87
85
87
91
99
101
101
85
88
71
49
41
34
20
-4
-13
-16
-13
-21
-19
-16
-34
-60
-76
-55
-53
-66
-74
-71
-53
-66
-78
-79
-101
-116
-113
-97
-88
-68
-53
-57
-46
-17
2
-11
-6
25
38
16
9
17
24
26
19
11
25
40
42
66
66
48
44
59
76
74
68
70
93
100
82
67
68
78
83
83
94
111
124
135
155
170
163
150
154
148
143
142
147
145
140
141
139
138
126
105
98
101
107
93
77
72
75
71
55
48
42
49
45
32
35
47
42
46
55
84
139
131
92
73
77
67
64
58
48
47
41
24
23
44
53
51
72
62
38
14
15
22
20
19
17
12
2
-7
-9
-13
-17
-24
-23
-16
-11
-16
-12
-3
-7
-13
-5
1
-3
-9
-10
-1
1
5
5
6
13
12
12
15
26
28
18
7
14
27
28
20
11
10
5
10
30
40
34
37
50
59
68
74
100
121
116
108
114
128
124
113
113
131
147
153
154
160
158
157
160
180
205
237
247
259
252
235
234
247
264
275
287
291
284
276
263
244
234
241
243
237
231
224
240
245
227
208
216
224
209
174
154
149
140
132
123
120
113
99
94
96
92
87
72
62
61
51
53
45
39
36
34
33
32
37
47
52
48
39
37
35
38
34
22
10
13
18
20
19
17
11
13
26
27
15
7
5
5
6
9
10
3
9
19
27
28
29
30
23
17
21
15
2
-19
-38
-41
-51
-71
-88
-100
-105
-106
-116
-129
-140
-149
-153
-162
-179
-190
-191
-184
-178
-177
-178
-185
-194
-194
-190
-189
-187
-189
-182
-171
-157
-144
-137
-125
-109
-102
-97
-91
-85
-77
-71
-64
-61
-54
-45
-46
-43
-27
-18
-16
-16
-3
4
4
9
18
18
12
11
18
30
40
39
33
38
41
46
52
61
65
60
67
68
66
60
58
51
42
44
57
55
37
19
14
18
18
10
5
-2
-7
-1
16
28
17
10
23
33
43
64
94
118
125
132
142
154
162
168
174
183
194
198
197
194
191
191
197
210
219
224
230
234
232
236
238
240
238
235
236
237
228
217
212
209
209
212
207
200
197
195
188
184
180
170
160
152
142
135
125
115
101
78
64
52
39
22
3
-11
-14
-19
-28
-42
-57
-62
-67
-75
-86
-102
-103
-102
-107
-114
-116
-120
-124
-130
-130
-127
-127
-121
-118
-118
-114
-112
-118
-116
-114
-117
-116
-108
-95
-85
-77
-79
-88
-83
-64
-56
-52
-61
-64
-57
-62
-69
-82
-88
-84
-80
-87
-98
-107
-121
-131
-135
-130
-142
-141
-133
-131
-135
-144
-150
-155
-164
-166
-156
-156
-159
-155
-141
-132
-130
-127
-122
-117
-107
-98
-86
-87
-97
-91
-65
-57
-55
-48
-41
-36
-39
-26
-14
-9
-1
13
19
25
36
37
40
42
50
53
49
64
64
68
70
68
73
93
106
107
108
113
118
108
88
97
98
94
85
67
71
77
73
57
46
38
41
72
93
90
76
79
82
69
60
64
66
54
13
3
5
26
22
-5
1
9
11
-12
-20
-16
-34
-72
-101
-101
-152
-192
-143
-125
-145
-177
-170
-171
-195
-219
-232
-238
-256
-306
-342
-306
-306
-340
-427
-394
-327
-324
-354
-373
-354
-363
-367
-360
-355
-364
-378
-386
-390
-401
-409
-418
-421
-436
-447
-450
-460
-475
-500
-504
-508
-524
-536
-546
-545
-556
-574
-582
-587
-596
-598
-596
-599
-596
-591
-587
-581
-584
-584
-577
-563
-550
-543
-541
-539
-539
-524
-504
-493
-471
-449
-434
-446
-428
-384
-357
-345
-332
-305
-287
-271
-257
-241
-236
-223
-201
-186
-166
-143
-109
-81
-66
-52
-30
-4
15
31
54
72
82
89
98
115
128
137
143
154
156
151
116
129
181
214
211
207
218
217
213
205
202
199
186
190
201
197
178
187
201
205
202
204
211
206
203
204
201
195
196
197
194
192
197
207
207
214
213
216
224
232
241
255
260
257
261
270
278
279
279
292
300
313
326
328
336
332
341
369
389
402
413
423
431
427
417
408
404
376
393
406
410
402
398
403
394
389
379
364
357
338
330
317
296
299
296
296
291
282
261
249
234
219
199
196
166
39
44
117
137
88
45
36
17
-18
-26
-38
-64
-70
-83
-75
-92
-107
-111
-131
-152
-163
-172
-170
-223
-233
-211
-204
-223
-230
-269
-292
-260
-275
-346
-355
-313
-290
-296
-324
-315
-299
-317
-347
-359
-357
-338
-335
-340
-367
-393
-385
-359
-401
-454
-453
-473
-477
-447
-371
-362
-348
-332
-303
-296
-288
-279
-256
-242
-244
-230
-235
-302
-259
-201
-157
-242
-238
-163
-120
-111
-130
-129
-120
-116
-149
-167
-155
-142
-141
-156
-140
-140
-181
-150
-101
-95
-116
-108
-86
-68
-67
-58
-42
-35
-33
-16
-19
-13
16
33
53
42
17
38
49
56
45
50
51
32
35
45
58
58
52
63
75
85
84
87
80
91
77
6
25
63
95
91
87
78
62
41
12
8
2
-16
-24
-82
-169
-103
-34
-20
-49
-72
-75
-67
-59
-68
-99
-118
-114
-116
-144
-154
-166
-169
-181
-209
-217
-220
-221
-241
-241
-226
-214
-222
-210
-197
-212
-207
-194
-174
-169
-154
-169
-163
-279
-323
-183
-129
-136
-161
-142
-136
-159
-184
-197
-198
-206
-207
-197
-200
-213
-215
-216
-228
-242
-265
-272
-263
-253
-250
-247
-239
-238
-236
-231
-230
-224
-226
-236
-248
-249
-248
-250
-261
-274
-262
-256
-264
-274
-279
-271
-285
-305
-307
-312
-311
-319
-323
-324
-323
-334
-352
-338
-330
-323
-342
-344
-338
-340
-344
-348
-353
-360
-358
-370
-369
-357
-345
-368
-380
-366
-355
-356
-349
-341
-346
-347
-337
-327
-338
-353
-348
-329
-317
-284
-259
-249
-224
-186
-148
-153
-167
-154
-137
-115
-90
-79
-69
-51
-19
4
14
16
30
47
67
82
93
125
156
180
191
216
240
278
306
321
341
351
362
370
359
363
401
411
393
366
365
385
371
340
325
335
359
370
366
366
364
361
355
348
342
355
364
363
357
353
335
309
300
296
300
298
273
238
218
222
201
175
147
113
85
63
40
13
-23
-45
-62
-79
-85
-83
-94
-105
-104
-88
-67
-46
-9
58
136
225
344
478
627
785
952
1129
1315
1517
1711
1886
2044
2191
2327
2446
2554
2650
2728
2798
2859
2895
2903
2886
2850
2802
2745
2675
2587
2490
2377
2254
2111
1963
1822
1673
1524
1378
1222
1060
895
724
548
374
221
73
-74
-208
-336
-466
-579
-678
-760
-833
-898
-941
-982
-1024
-1059
-1091
-1105
-1117
-1130
-1132
-1133
-1155
-1177
-1157
-1145
-1159
-1187
-1200
-1219
-1253
-1277
-1305
-1333
-1364
-1384
-1398
-1397
-1371
-1333
-1283
-1220
-1135
-1040
-932
-802
-666
-528
-403
-255
-105
21
143
275
402
526
625
727
835
927
1021
1103
1171
1218
1263
1313
1362
1404
1433
1450
1474
1510
1545
1565
1580
1610
1615
1606
1572
1563
1596
1603
1589
1613
1640
1630
1588
1544
1492
1420
1363
1259
1145
1105
1064
1011
935
845
766
706
632
547
482
435
397
369
344
318
263
207
135
19
-38
-70
-170
-327
-444
-505
-583
-713
-855
-1004
-1057
-1068
-1156
-1316
-1452
-1456
-1477
-1622
-1704
-1724
-1721
-1748
-1767
-1794
-1824
-1786
-1783
-1813
-1850
-1895
-1868
-1874
-1872
-1888
-1885
-1863
-1855
-1835
-1813
-1782
-1753
-1716
-1675
-1635
-1587
-1522
-1471
-1443
-1342
-1255
-1181
-1097
-1013
-948
-880
-824
-777
-732
-685
-638
-612
-591
-554
-531
-530
-537
-526
-514
-511
-524
-505
-529
-539
-475
-415
-350
-313
-274
-220
-145
-68
8
92
181
264
336
416
491
557
625
686
732
769
791
805
811
797
773
742
728
733
707
674
641
610
566
519
486
460
430
406
377
349
318
282
258
244
226
216
219
217
206
183
168
172
171
151
127
110
104
94
75
69
59
41
35
30
23
15
6
6
4
2
3
14
23
31
36
53
74
92
114
133
152
170
200
228
242
251
263
273
281
294
302
308
305
290
276
263
258
254
257
260
264
267
264
259
256
254
247
246
261
272
276
275
273
286
285
289
295
302
297
291
307
314
301
300
284
277
301
307
302
296
298
302
300
284
279
276
264
277
294
309
314
307
296
292
288
288
298
308
319
301
288
244
274
174
217
343
369
345
300
349
397
375
355
390
406
419
411
419
379
368
374
372
389
389
380
333
297
295
283
251
278
299
294
196
120
211
237
219
179
182
211
98
38
80
122
123
71
107
74
106
78
71
61
58
83
85
34
25
17
13
-28
-60
-43
-31
-18
-75
-103
-62
-51
-61
-177
-163
-108
-112
-126
-144
-120
-126
-121
-131
-138
-198
-196
-189
-179
-157
-208
-278
-259
-203
-176
-242
-285
-262
-233
-282
-341
-290
-240
-245
-284
-259
-334
-352
-304
-348
-458
-500
-389
-385
-472
-555
-541
-481
-438
-564
-491
-396
-360
-349
-371
-358
-386
-372
-376
-363
-366
-394
-419
-417
-384
-425
-466
-522
-537
-491
-493
-490
-475
-453
-441
-431
-420
-505
-473
-438
-441
-452
-479
-463
-468
-450
-439
-402
-383
-422
-465
-451
-454
-474
-451
-461
-521
-497
-463
-455
-458
-465
-480
-553
-533
-473
-466
-458
-437
-388
-368
-380
-395
-390
-371
-370
-433
-417
-349
-295
-292
-299
-286
-267
-255
-297
-288
-258
-263
-265
-264
-243
-220
-227
-220
-229
-249
-247
-223
-214
-225
-236
-229
-197
-188
-192
-193
-157
-123
-108
-115
-115
-98
-115
-134
-149
-109
-88
-138
-141
-161
-139
-113
-105
-92
-80
-70
-87
-132
-107
-154
-158
-117
-80
-37
-50
-46
-38
-16
-15
-27
-29
-10
20
30
29
37
61
52
54
51
41
-28
-54
22
71
58
-8
-2
24
53
37
54
84
122
117
111
113
114
107
93
88
90
91
54
51
44
42
31
20
28
30
23
19
1
-24
-45
-36
-38
-25
0
18
36
66
105
116
100
122
170
162
105
86
177
205
201
177
182
208
188
152
134
127
136
125
128
141
147
143
157
169
170
162
157
155
152
146
124
111
106
113
76
23
86
116
114
76
56
44
13
14
32
25
-2
3
4
-5
32
49
69
64
43
59
27
0
60
106
120
71
-21
-107
-74
73
113
97
92
123
195
208
182
174
224
274
257
217
201
140
116
86
76
95
100
97
66
60
40
21
-47
-38
14
40
39
23
28
-38
-70
16
54
56
29
68
-28
-35
47
58
86
84
90
59
24
13
23
30
-36
-97
-105
-75
-60
-136
-207
-381
-410
-409
-356
-224
-244
-121
-79
-42
-21
-160
-142
-14
31
-27
-59
27
14
-38
-105
-148
4
78
121
92
91
121
139
120
122
150
150
108
78
171
224
223
168
139
45
4
-150
-50
97
86
115
95
171
189
131
82
77
118
136
101
86
130
173
174
157
135
153
170
120
83
56
30
23
15
23
3
-26
-59
-39
-28
-45
-72
-56
-13
-59
-83
-40
6
35
50
22
42
58
54
61
50
60
38
-2
-110
-123
-48
12
31
-4
6
26
54
3
-78
-8
87
84
24
16
52
30
-3
23
68
96
34
-5
-55
-42
-82
-179
-168
-156
-112
-62
-111
-119
-92
-113
-154
-185
-144
-98
-92
-91
-96
-89
-81
-74
-66
-63
-93
-101
-76
-36
-42
-105
-150
-144
-152
-122
-119
-217
-183
-193
-101
-41
-79
-68
-118
-151
-225
-213
-134
-88
-73
-99
-201
-265
-140
-132
-66
-68
-123
-92
-138
-303
-200
-35
5
-13
-167
-236
-134
-12
-37
10
65
174
180
107
119
146
174
141
123
118
114
79
68
53
33
-13
-12
-18
-43
-100
-108
-55
-44
-72
-96
-88
-70
-113
-138
-124
-89
-94
-135
-121
-101
-74
-108
-104
-78
-97
-106
-71
-28
-17
-44
-40
-44
-63
-77
-203
-129
-15
25
-213
-361
-130
66
100
-39
-13
74
128
66
-10
-46
9
47
51
7
-31
12
16
11
-1
0
21
27
21
-11
-4
-2
-6
-21
-34
-39
-23
9
-12
-1
2
16
24
12
-9
-46
-34
-14
6
-7
-27
-23
-18
-32
-52
-64
-68
-74
-91
-89
-86
-77
-74
-74
-75
-70
-68
-69
-68
-69
-76
-80
-78
-90
-89
-77
-61
-57
-51
-42
-32
-25
-18
-4
2
0
2
3
-6
-9
-12
-23
-3
7
2
-11
-6
17
10
-2
-4
-7
-10
-17
-20
-26
-39
-43
-44
-47
-63
-66
-76
-87
-105
-149
-123
-109
-120
-123
-130
-106
-116
-136
-149
-161
-164
-162
-164
-173
-168
-166
-176
-197
-185
-150
-133
-147
-148
-131
-123
-126
-134
-131
-122
-102
-93
-95
-102
-110
-111
-103
-101
-106
-104
-86
-75
-81
-95
-85
-78
-89
-95
-93
-97
-100
-112
-117
-103
-91
-86
-90
-101
-95
-78
-70
-73
-86
-79
-61
-51
-48
-56
-55
-46
-35
-19
-8
-1
12
28
47
61
76
93
107
132
166
193
227
269
298
324
354
400
441
475
530
598
658
721
802
889
992
1111
1230
1329
1405
1466
1502
1493
1434
1336
1205
1063
908
762
616
447
267
73
-129
-330
-540
-738
-906
-1065
-1214
-1354
-1470
-1555
-1620
-1662
-1688
-1702
-1693
-1664
-1619
-1555
-1469
-1371
-1244
-1090
-918
-747
-595
-439
-292
-150
-20
83
166
234
289
343
373
378
388
388
374
366
355
341
337
335
346
350
353
360
381
416
448
469
514
570
620
660
711
762
804
843
891
921
923
920
910
892
872
840
790
729
655
579
489
396
307
216
135
57
-16
-93
-161
-216
-264
-307
-331
-348
-358
-352
-349
-338
-316
-298
-270
-226
-174
-121
-66
-8
47
93
144
208
263
312
360
413
463
501
529
557
572
589
610
612
612
620
615
598
566
532
496
460
426
404
386
370
362
356
352
340
314
290
276
260
229
192
165
130
86
49
16
-16
-50
-97
-134
-177
-218
-259
-292
-307
-322
-353
-386
-411
-426
-440
-434
-420
-421
-426
-422
-415
-406
-397
-391
-400
-408
-410
-403
-398
-404
-415
-438
-443
-441
-439
-440
-442
-435
-426
-432
-435
-429
-420
-405
-400
-386
-352
-328
-314
-305
-295
-270
-243
-221
-187
-142
-116
-92
-59
-31
2
22
45
81
110
120
122
139
153
151
150
163
175
176
168
176
187
167
142
125
127
141
141
131
128
135
132
115
112
125
128
123
122
118
121
121
135
162
177
189
193
189
192
195
201
213
222
224
227
230
232
236
244
247
235
221
228
238
228
211
193
188
175
153
140
134
139
125
112
107
95
85
83
79
70
70
71
80
83
79
66
52
51
66
73
74
69
59
58
48
29
19
17
17
21
29
20
-2
-19
-33
-45
-42
-44
-53
-59
-63
-73
-89
-95
-88
-80
-79
-79
-80
-74
-78
-94
-92
-82
-88
-109
-117
-103
-84
-87
-93
-96
-121
-133
-143
-141
-124
-119
-133
-145
-153
-154
-155
-157
-150
-146
-142
-132
-115
-113
-114
-112
-95
-85
-76
-70
-63
-57
-50
-46
-38
-33
-30
-10
5
5
-5
-11
-1
5
2
-1
9
11
7
6
9
12
5
16
17
14
15
22
20
6
-7
-15
-30
-36
-26
-17
-28
-60
-85
-87
-80
-78
-71
-63
-54
-64
-76
-75
-80
-99
-101
-104
-109
-92
-83
-84
-91
-93
-87
-86
-91
-99
-103
-102
-96
-86
-84
-98
-108
-106
-101
-94
-85
-84
-75
-65
-60
-53
-60
-58
-48
-45
-45
-46
-41
-38
-53
-73
-72
-61
-64
-82
-87
-82
-85
-89
-81
-76
-72
-75
-85
-84
-85
-95
-97
-97
-97
-88
-93
-111
-120
-117
-106
-105
-105
-100
-106
-110
-115
-119
-124
-133
-139
-125
-117
-116
-107
-99
-92
-90
-86
-75
-68
-61
-42
-31
-33
-33
-30
-28
-28
-34
-34
-14
10
14
-3
-4
7
1
3
20
38
51
52
51
52
52
58
58
55
55
62
65
67
60
46
35
35
52
55
60
57
55
67
80
86
89
88
89
107
122
128
125
117
126
138
141
134
134
141
145
141
149
151
141
139
138
147
157
151
150
149
157
164
162
164
169
168
166
170
174
171
171
171
165
169
180
184
184
181
184
194
204
199
193
207
217
207
190
176
182
189
193
190
187
187
183
175
164
158
157
160
156
160
166
160
158
161
159
161
167
181
192
193
197
194
184
182
179
180
180
174
178
175
172
179
167
154
151
145
151
161
166
173
171
169
167
163
161
154
145
139
137
135
126
116
107
106
109
127
131
125
123
131
128
132
138
143
148
139
143
153
145
135
128
128
138
134
113
101
98
86
64
62
67
55
51
46
35
25
17
15
14
3
-3
-3
-14
-25
-40
-49
-49
-58
-70
-82
-94
-99
-117
-134
-147
-167
-171
-165
-175
-177
-167
-166
-164
-166
-171
-164
-162
-160
-152
-151
-153
-159
-159
-153
-155
-155
-158
-146
-137
-135
-137
-134
-122
-116
-104
-103
-103
-88
-80
-73
-67
-66
-59
-62
-65
-57
-58
-58
-60
-60
-63
-75
-85
-75
-68
-65
-76
-94
-103
-116
-120
-110
-118
-126
-127
-131
-140
-161
-169
-160
-159
-161
-158
-150
-143
-147
-149
-134
-126
-132
-129
-130
-129
-122
-113
-100
-93
-97
-100
-94
-86
-67
-55
-68
-84
-83
-63
-48
-44
-37
-22
-5
-1
-4
-5
-6
-7
-1
24
50
59
51
57
62
55
48
51
68
80
78
72
73
68
57
54
66
76
64
60
71
86
88
78
69
72
75
73
82
81
77
57
40
50
48
31
22
28
27
16
7
7
-6
-17
-13
-14
-16
-19
-23
-21
-20
-17
-7
-2
-10
-10
-8
-13
-19
-17
-10
-6
-7
-6
-7
1
8
5
3
4
14
33
41
48
59
71
82
91
92
89
78
75
85
95
83
55
28
14
8
5
7
-6
-10
-8
-21
-37
-42
-46
-52
-62
-60
-47
-50
-58
-72
-89
-84
-88
-98
-109
-111
-99
-104
-119
-122
-130
-139
-137
-139
-132
-129
-137
-141
-156
-166
-176
-182
-182
-185
-190
-181
-169
-178
-186
-181
-166
-157
-157
-137
-114
-108
-109
-107
-96
-76
-65
-66
-55
-40
-33
-30
-34
-32
-39
-44
-44
-41
-49
-54
-54
-61
-67
-68
-54
-52
-56
-72
-90
-89
-91
-94
-92
-86
-81
-84
-95
-94
-96
-106
-101
-94
-89
-97
-102
-98
-98
-105
-100
-102
-102
-94
-91
-94
-99
-108
-115
-134
-140
-131
-126
-116
-100
-92
-100
-113
-112
-103
-96
-89
-82
-79
-66
-61
-70
-63
-54
-55
-50
-48
-56
-65
-63
-63
-69
-82
-81
-81
-83
-82
-77
-76
-88
-88
-80
-80
-86
-91
-98
-108
-107
-107
-104
-112
-126
-128
-132
-131
-123
-122
-117
-124
-131
-120
-117
-117
-125
-131
-127
-135
-138
-134
-143
-144
-139
-133
-131
-126
-121
-121
-133
-137
-133
-132
-130
-121
-106
-98
-90
-95
-101
-103
-105
-100
-86
-73
-77
-87
-88
-77
-66
-61
-59
-55
-58
-35
-27
-65
-60
-39
-32
-29
-31
-11
3
-7
-24
-48
-60
-48
-24
-7
-4
2
-9
-22
-14
-9
-12
-21
-28
-12
-11
-19
-26
-26
-19
-27
-42
-47
-46
-55
-56
-62
-59
-63
-66
-52
-52
-53
-38
-23
-12
-4
5
22
29
31
38
47
63
75
82
82
75
77
82
79
82
97
104
107
117
121
137
151
160
171
182
183
189
181
177
187
193
204
201
198
191
174
158
145
130
128
116
105
93
65
54
34
17
9
10
4
3
2
-5
-13
-24
-18
-7
-4
-7
-8
9
19
4
-1
-6
-7
-2
-12
-22
-11
-5
-9
-15
-16
-12
-5
-3
-1
18
20
14
3
-7
-6
-10
-14
-20
-9
2
13
30
38
32
23
36
53
63
68
70
73
78
81
88
100
118
140
151
151
159
173
184
186
207
218
208
195
184
192
196
194
209
212
218
225
231
221
216
218
232
238
228
230
238
243
244
230
223
221
220
220
221
221
240
247
262
278
262
260
254
258
260
257
252
258
278
295
293
305
326
328
321
314
310
315
319
297
286
292
310
315
322
308
299
290
287
300
298
292
288
286
288
281
265
246
231
237
236
229
230
228
217
201
184
188
204
200
194
182
173
162
142
130
128
110
97
87
83
92
82
75
76
54
42
43
40
37
37
35
40
38
32
22
23
24
16
11
18
29
35
13
17
41
54
50
42
44
53
58
61
59
61
66
62
62
59
61
58
53
56
49
52
63
64
59
48
47
44
25
12
17
12
2
-13
-28
-37
-41
-36
-35
-41
-47
-49
-69
-83
-97
-108
-108
-115
-117
-124
-134
-132
-136
-155
-164
-162
-165
-176
-194
-196
-186
-186
-190
-194
-195
-189
-187
-187
-189
-188
-193
-201
-205
-193
-179
-183
-173
-151
-124
-118
-125
-127
-120
-110
-91
-76
-69
-65
-58
-33
-30
-41
-41
-44
-48
-39
-38
-47
-45
-54
-63
-79
-92
-94
-100
-90
-81
-78
-76
-73
-72
-65
-57
-58
-57
-62
-53
-47
-43
-29
-27
-26
-28
-35
-34
-34
-37
-40
-54
-63
-53
-50
-51
-43
-44
-36
-24
-22
-25
-29
-22
-8
-10
-19
-25
-27
-23
-19
-4
6
1
-1
4
11
20
28
44
69
91
106
114
119
128
144
144
144
143
143
158
171
176
171
151
139
137
139
141
127
117
107
88
74
72
65
65
64
66
79
75
67
60
54
69
78
82
82
76
81
82
78
78
70
58
61
66
73
76
73
77
87
88
87
100
113
108
103
110
126
131
131
138
140
146
148
161
161
151
158
166
161
168
185
196
209
216
222
225
223
231
236
236
240
239
240
227
209
200
196
195
197
191
196
199
178
157
149
144
138
126
121
125
112
101
85
69
64
49
30
19
12
7
-2
-16
-26
-49
-75
-80
-79
-79
-81
-90
-101
-113
-116
-115
-114
-122
-119
-122
-127
-135
-148
-156
-161
-162
-164
-163
-154
-148
-156
-165
-162
-173
-181
-179
-167
-156
-168
-178
-170
-164
-170
-175
-173
-159
-153
-157
-156
-157
-159
-171
-176
-164
-159
-164
-174
-185
-184
-184
-194
-198
-196
-197
-205
-216
-218
-226
-248
-250
-242
-240
-244
-262
-276
-308
-300
-284
-289
-310
-311
-289
-278
-275
-279
-276
-283
-285
-279
-270
-258
-253
-258
-268
-264
-254
-253
-255
-246
-231
-224
-217
-203
-197
-196
-187
-180
-160
-142
-128
-115
-104
-89
-86
-88
-81
-73
-66
-56
-45
-43
-42
-49
-55
-54
-53
-49
-55
-55
-46
-54
-69
-80
-87
-90
-101
-103
-90
-91
-96
-96
-90
-78
-84
-97
-94
-95
-90
-78
-71
-66
-70
-76
-62
-55
-60
-59
-52
-36
-30
-30
-24
-22
-20
-19
-21
-23
-28
-29
-22
-24
-31
-26
-18
-13
-8
-1
4
7
10
16
22
23
26
22
16
21
20
17
16
13
15
10
2
-1
-2
-7
-10
-13
-4
1
8
10
-4
-13
-13
-15
-16
-15
-4
11
7
5
17
12
9
8
7
2
-4
5
12
2
-8
-18
-25
-18
-12
-12
0
3
9
6
-11
-10
-14
-14
-9
2
4
6
13
11
-3
-9
-2
2
-5
-7
-12
-15
-9
-9
-8
-4
0
6
8
6
4
-3
-5
-3
-2
5
12
19
19
15
13
4
-2
9
8
-9
-24
-32
-26
-11
-3
0
0
-3
6
3
-1
4
-4
-14
-11
-1
3
-11
-19
-21
-30
-39
-51
-67
-75
-79
-86
-93
-83
-85
-92
-105
-109
-101
-91
-80
-71
-63
-51
-45
-44
-32
-17
1
17
36
55
59
60
62
58
59
61
66
72
71
54
45
36
33
30
20
20
29
32
27
20
11
4
-4
-13
-15
-26
-23
-22
-22
-16
-19
-22
-25
-23
-14
-15
-24
-25
-37
-34
-28
-29
-39
-48
-45
-38
-43
-42
-39
-50
-49
-50
-48
-17
4
0
-3
-5
2
6
15
33
40
37
39
56
62
63
64
72
87
96
113
126
119
113
108
104
114
123
134
139
132
126
121
106
104
109
118
121
113
103
94
79
59
51
50
48
38
35
38
28
18
15
20
28
26
36
56
58
50
44
44
59
62
57
42
27
39
48
42
35
19
20
26
23
20
23
23
23
24
19
14
10
14
25
24
16
9
12
13
14
13
10
8
15
21
22
22
24
20
26
38
41
44
46
39
35
28
29
27
17
14
7
-3
-17
-31
-34
-41
-55
-56
-58
-68
-75
-92
-87
-81
-88
-94
-96
-97
-91
-98
-110
-120
-131
-138
-140
-131
-124
-129
-134
-127
-125
-125
-123
-124
-109
-104
-105
-100
-95
-92
-100
-97
-79
-69
-65
-59
-52
-47
-48
-44
-37
-37
-35
-26
-9
-6
-9
-8
-10
-3
1
3
7
5
4
2
0
1
-6
-20
-28
-24
-19
-8
2
9
7
8
11
1
3
13
8
2
4
6
11
4
1
3
-2
2
8
1
-9
-19
-20
-10
-10
-8
-13
-13
-7
-20
-34
-37
-42
-40
-39
-44
-41
-31
-18
-15
-16
-24
-23
-17
-14
-17
-26
-25
-29
-32
-39
-39
-35
-42
-51
-47
-45
-56
-65
-64
-68
-71
-66
-65
-61
-71
-91
-103
-102
-107
-121
-132
-134
-132
-143
-163
-179
-190
-196
-196
-194
-203
-223
-238
-260
-275
-271
-274
-292
-305
-313
-307
-310
-323
-333
-337
-330
-304
-314
-338
-353
-348
-325
-326
-336
-337
-332
-323
-313
-313
-299
-276
-270
-265
-253
-246
-231
-207
-190
-178
-158
-141
-90
-65
-67
-55
-34
-5
16
44
52
45
47
51
44
43
54
66
78
82
83
81
70
69
81
83
92
99
55
11
-7
-24
-48
-52
-47
-77
-107
-129
-162
-187
-213
-229
-235
-243
-266
-288
-306
-316
-322
-360
-408
-439
-446
-456
-487
-523
-563
-587
-605
-640
-672
-692
-701
-718
-730
-764
-791
-797
-792
-791
-780
-749
-692
-621
-591
-543
-484
-404
-305
-175
-45
74
224
394
563
702
844
997
1141
1290
1418
1574
1716
1828
1914
2004
2115
2227
2320
2369
2411
2435
2437
2421
2381
2316
2235
2160
2069
1942
1810
1650
1489
1328
1157
966
765
558
363
171
-15
-193
-378
-545
-687
-819
-941
-1052
-1131
-1186
-1231
-1261
-1272
-1280
-1270
-1235
-1186
-1134
-1082
-1038
-982
-923
-859
-810
-779
-752
-740
-736
-750
-758
-791
-837
-874
-910
-949
-993
-1018
-1034
-1039
-1026
-999
-954
-886
-819
-747
-663
-560
-452
-346
-225
-93
37
164
288
404
516
609
700
788
872
955
1053
1140
1203
1262
1304
1345
1375
1399
1416
1425
1424
1422
1418
1410
1401
1393
1396
1395
1403
1444
1466
1452
1435
1412
1389
1360
1322
1294
1262
1228
1201
1164
1113
1059
1007
958
904
853
818
800
780
767
763
737
704
673
649
616
573
528
482
429
379
320
247
179
111
43
-31
-116
-202
-278
-364
-441
-513
-575
-626
-671
-718
-761
-790
-808
-834
-852
-862
-880
-897
-917
-939
-943
-942
-950
-954
-957
-959
-963
-971
-969
-957
-951
-947
-936
-928
-917
-905
-885
-865
-848
-822
-794
-764
-717
-664
-621
-567
-511
-452
-393
-340
-281
-225
-174
-157
-146
-147
-150
-154
-170
-190
-197
-201
-206
-209
-192
-180
-163
-139
-112
-77
-28
20
62
101
129
158
191
232
271
295
320
358
395
406
411
415
431
442
456
472
464
457
461
452
445
438
426
410
390
379
365
335
313
298
283
267
247
235
222
207
199
191
173
161
146
137
128
104
91
91
82
66
59
52
37
14
2
3
8
14
12
5
-5
-2
9
16
24
49
74
71
61
70
87
102
126
144
151
155
161
173
178
181
197
206
213
216
220
210
197
199
204
202
208
207
206
201
187
181
186
183
184
189
190
197
192
184
179
175
179
186
182
179
177
190
194
176
164
164
155
146
135
125
111
93
81
74
70
54
41
34
26
14
3
5
15
9
-4
-5
-2
-4
-3
-4
-2
-4
0
-7
-16
-32
-40
-17
-8
-16
-36
-40
-47
-62
-83
-108
-142
-144
-119
-112
-121
-141
-152
-151
-156
-169
-183
-186
-197
-209
-207
-209
-209
-216
-223
-230
-242
-238
-225
-222
-214
-206
-196
-200
-214
-217
-228
-235
-236
-233
-238
-245
-238
-246
-254
-262
-257
-242
-239
-243
-232
-210
-199
-194
-186
-164
-167
-186
-185
-174
-167
-138
-96
-73
-79
-93
-79
-68
-66
-59
-38
-20
-24
-31
-26
-21
-36
-50
-46
-37
-33
-40
-48
-51
-51
-56
-61
-59
-50
-51
-49
-40
-36
-40
-54
-58
-49
-39
-44
-55
-68
-75
-84
-90
-87
-95
-97
-103
-164
-147
-114
-98
-108
-118
-105
-94
-97
-110
-104
-99
-120
-127
-117
-104
-123
-144
-130
-107
-96
-105
-101
-92
-77
-69
-75
-80
-72
-61
-66
-63
-45
-32
-24
-15
-2
-2
-3
-1
0
2
-8
-11
-14
-9
-2
-6
-17
-24
-19
-24
-25
3
15
16
15
13
18
26
24
36
54
58
66
71
64
56
45
39
32
22
19
10
0
-5
-10
-13
-16
-21
-20
-22
-34
-43
-36
-46
-73
-66
-72
-80
-83
-81
-72
-62
-56
-52
-58
-63
-47
-19
-6
-7
-4
7
11
15
13
13
21
38
59
65
25
44
90
104
87
74
76
96
105
93
75
65
58
44
29
31
21
-6
-9
-18
-24
-41
-57
-66
-68
-73
-77
-88
-108
-124
-136
-117
-113
-135
-123
-124
-115
-116
-110
-99
-97
-107
-110
-103
-108
-112
-121
-128
-124
-126
-130
-137
-127
-123
-125
-119
-111
-100
-103
-103
-88
-76
-65
-58
-48
-63
-77
-65
-63
-58
-53
-40
-42
-47
-51
-59
-59
-72
-88
-98
-102
-105
-110
-131
-148
-166
-197
-207
-208
-199
-208
-219
-228
-250
-263
-265
-265
-263
-263
-261
-259
-277
-266
-252
-250
-257
-259
-251
-253
-264
-251
-227
-217
-204
-211
-204
-186
-183
-182
-174
-149
-136
-137
-139
-139
-122
-142
-145
-150
-165
-159
-118
-64
-43
-32
-14
11
43
29
-11
41
117
150
141
145
175
185
178
162
155
168
159
148
132
121
118
102
71
45
40
36
22
17
24
19
13
11
16
34
45
54
77
81
85
45
-42
25
91
111
90
71
91
109
82
16
-6
-43
27
72
75
81
93
115
132
135
130
139
148
151
155
170
186
187
180
158
142
148
150
157
151
149
150
163
163
154
150
138
138
141
145
134
87
54
84
120
88
61
56
41
65
69
62
30
8
-3
-17
-15
-25
-51
-87
-93
-81
-86
-103
-123
-135
-139
-149
-172
-184
-182
-184
-194
-212
-244
-261
-268
-265
-257
-272
-284
-272
-272
-275
-283
-285
-299
-313
-294
-280
-263
-267
-250
-228
-209
-212
-238
-315
-280
-196
-179
-176
-202
-187
-163
-168
-180
-192
-186
-189
-209
-208
-189
-183
-206
-255
-222
-186
-202
-291
-243
-181
-146
-166
-186
-158
-148
-149
-161
-135
-105
-105
-115
-111
-109
-107
-104
-96
-87
-83
-83
-77
-77
-81
-81
-82
-80
-72
-60
-54
-53
-52
-44
-48
-56
-67
-68
-60
-56
-51
-37
-25
-15
-4
-2
0
7
25
40
51
57
60
74
87
93
102
124
142
148
160
180
191
196
192
190
206
219
220
216
212
216
225
221
226
224
228
237
244
235
232
227
221
216
219
223
205
197
198
195
189
190
191
195
185
184
181
162
162
160
158
163
164
160
157
150
145
142
142
150
147
148
151
141
143
154
154
149
151
156
150
148
153
155
153
141
133
136
130
117
107
99
120
135
149
145
128
134
139
138
148
157
164
164
146
133
123
110
96
79
73
70
49
24
9
-5
-19
-40
-52
-59
-82
-99
-108
-125
-143
-160
-173
-185
-204
-207
-206
-215
-223
-243
-256
-255
-264
-267
-274
-292
-297
-301
-306
-321
-344
-350
-329
-331
-335
-328
-312
-320
-340
-332
-310
-305
-317
-323
-316
-316
-319
-326
-330
-326
-321
-319
-315
-312
-299
-298
-295
-289
-296
-289
-270
-259
-258
-248
-239
-230
-231
-231
-215
-206
-207
-211
-207
-185
-187
-185
-186
-189
-178
-175
-167
-158
-163
-170
-162
-150
-141
-131
-123
-103
-91
-94
-97
-99
-88
-67
-62
-60
-53
-47
-43
-43
-31
-13
-2
4
16
26
33
44
49
65
79
89
88
95
116
133
136
132
135
147
149
146
166
184
201
216
235
244
244
246
248
261
278
280
279
274
260
252
246
238
236
225
221
229
235
227
214
211
213
213
214
214
205
203
197
195
212
216
216
225
232
239
247
246
254
261
268
286
293
299
300
311
324
341
365
401
433
462
501
546
601
668
726
779
825
876
922
989
1078
1182
1300
1415
1572
1722
1843
1891
1880
1822
1713
1553
1331
1085
849
631
392
160
-52
-298
-575
-870
-1156
-1420
-1665
-1875
-2044
-2170
-2255
-2307
-2336
-2354
-2350
-2307
-2247
-2179
-2093
-1993
-1889
-1770
-1659
-1537
-1401
-1278
-1165
-1052
-941
-841
-763
-711
-664
-626
-590
-545
-510
-480
-459
-435
-401
-377
-349
-313
-278
-241
-198
-156
-108
-43
19
77
140
213
285
359
439
515
596
668
739
807
859
908
942
961
975
998
1006
986
964
939
895
842
802
754
694
629
570
510
427
352
290
226
161
103
47
-17
-70
-105
-134
-150
-149
-154
-155
-130
-100
-86
-52
-2
56
107
161
222
262
297
339
380
425
476
511
533
551
575
599
605
596
590
582
579
568
549
539
531
504
491
500
512
516
521
533
538
545
567
581
596
606
624
658
694
727
755
783
801
815
834
826
814
820
817
806
792
765
741
716
690
668
634
614
584
548
496
433
378
320
268
223
147
74
22
-44
-119
-190
-253
-322
-373
-417
-458
-501
-556
-584
-600
-626
-652
-668
-680
-693
-710
-716
-714
-721
-729
-747
-751
-755
-767
-756
-735
-739
-747
-745
-737
-730
-734
-735
-732
-713
-703
-704
-705
-698
-680
-657
-642
-636
-618
-600
-585
-570
-552
-529
-488
-454
-444
-425
-410
-398
-383
-381
-369
-347
-335
-322
-305
-298
-304
-308
-297
-294
-291
-286
-265
-257
-258
-268
-267
-242
-236
-233
-216
-208
-198
-190
-185
-174
-175
-172
-159
-150
-138
-148
-132
-97
-76
-66
-58
-46
-23
-1
-1
2
8
10
18
34
38
38
55
75
82
83
90
104
110
106
114
125
126
126
141
145
141
137
144
141
138
136
131
132
132
122
113
96
83
82
74
72
75
79
76
65
58
55
48
42
36
26
23
11
4
13
3
-16
-21
-28
-25
-30
-49
-61
-56
-58
-73
-79
-65
-59
-73
-68
-56
-49
-51
-69
-65
-62
-60
-58
-50
-53
-63
-66
-67
-73
-87
-97
-94
-88
-90
-93
-99
-112
-116
-112
-105
-103
-94
-86
-87
-88
-84
-90
-91
-83
-78
-80
-89
-103
-107
-109
-113
-110
-108
-104
-105
-108
-117
-124
-120
-117
-120
-106
-98
-110
-106
-106
-108
-103
-109
-107
-92
-87
-97
-100
-95
-91
-106
-111
-95
-93
-93
-93
-92
-86
-81
-84
-79
-82
-85
-76
-71
-63
-50
-47
-46
-36
-19
-19
-23
-19
-9
-6
-15
-7
8
10
8
6
8
13
28
42
41
46
59
60
65
82
94
97
92
88
103
107
86
80
79
78
72
55
37
18
13
13
9
6
11
0
4
-7
-24
-24
-32
-47
-53
-42
-34
-45
-64
-63
-64
-66
-58
-57
-67
-74
-66
-60
-65
-67
-64
-71
-70
-60
-58
-61
-63
-70
-74
-74
-69
-62
-51
-45
-52
-55
-59
-52
-41
-46
-45
-36
-27
-19
-6
2
-2
-6
6
23
25
39
53
59
64
64
66
68
61
68
73
79
84
80
68
51
47
43
36
36
38
19
4
1
-5
1
-1
2
11
6
2
11
10
-6
-21
-23
-26
-46
-62
-58
-46
-65
-80
-79
-64
-73
-92
-100
-94
-93
-96
-98
-96
-83
-89
-106
-108
-93
-90
-92
-98
-96
-89
-87
-79
-71
-73
-71
-58
-38
-32
-28
-29
-26
-18
2
4
12
25
16
17
26
28
29
17
6
7
10
-1
-37
-48
-52
-47
-36
-36
-51
-58
-38
-37
-41
-57
-83
